,shapes,klds
0,1.0255988221801609,0.0035598191882943776
1,2.024881853451748,3.5918155997322676e-06
2,1.4017515132893221,0.0009300523143874739
3,1.9990446943302367,2.8092430625921123e-08
4,1.1164757799475062,0.008805602484450862
5,1.981761982221909,1.004501030253557e-05
6,1.0518084581690441,0.006314350038078102
7,2.000358029202537,2.6033965135773166e-09
8,2.100594023267643,0.0001985482291097733
9,1.2725696337208523,0.014464295913253851
10,1.969501089581344,2.3684644787986262e-06
11,1.2538921509003622,0.006148532144620525
12,1.0152816034705219,0.0026966036163456686
13,2.001816744443279,8.315937385272599e-08
14,2.0005484305080032,8.225786836335887e-09
15,2.078146903838466,0.0007531592835258002
16,1.9998155169692828,1.1051644158984226e-09
17,2.000005082863961,3.647023399465036e-12
18,1.9660754760375478,0.0009633992140530861
19,1.9160724738231654,0.00013529126049092836
20,1.0124977980605898,0.0019833237895731
21,1.9143411062296944,0.0002180107865412313
22,1.7162872144108443,0.0028197960185125837
23,1.088905792654981,0.010025694036272601
24,1.691903182347788,0.0008323442220658017
25,1.0757814435449116,0.007852876984895944
26,1.6897872979107127,0.004658964755383979
27,1.880411727602301,0.00025985448698575376
28,2.006439000790398,6.671249904152526e-07
29,1.0014521462260049,0.00027102606090877114
30,1.9843552792426502,7.443213984716237e-06
31,2.000551398532325,8.730530737373805e-09
32,1.97991358277679,5.867112370716625e-06
33,2.0052939223200785,3.803076860980329e-05
34,1.9771387334500878,0.00023709540089720066
35,1.703732202462212,0.0009925520022455389
36,1.2655631653656634,0.014991517156952641
37,1.9705714945351815,2.6317103119066453e-05
38,2.000000061414594,8.939321042864311e-12
39,2.0000014181550605,8.880463253950744e-13
40,1.0094706302291174,0.0015092544189539443
41,1.92447256885717,7.166515070621553e-05
42,1.4290106037847186,0.001805596582030588
43,2.000001876932135,1.148008123967779e-12
44,1.0388974531884936,0.006152347989745494
45,1.0402667528445773,0.005936556826521892
46,2.0330464153598062,0.00010237848361335206
47,1.45013069978133,0.008081805256419822
48,2.00335482833266,1.6280299877647028e-07
49,2.0113267347458805,1.8598406708203276e-06
50,1.8531568552401976,0.000437093949858147
51,1.0142429121428065,0.0023940550969223902
52,1.9095648125621643,0.0008555913233347698
53,1.1146143479673467,0.009524530397646055
54,1.0341411287795683,0.003996523990769977
55,2.04270285438731,1.2910653888495277e-05
56,1.987586799810102,1.410837151262067e-06
57,1.6910887782909938,0.002812670218813788
58,1.8301564480687111,0.0008622562352488221
59,1.9998194699304586,9.432344413015685e-10
60,1.8297295538013,0.005831638989248573
61,2.0004098186541377,2.666881761492283e-09
62,2.0084306225990702,4.26176627319659e-07
63,2.000228696227186,7.440351511945605e-09
64,2.000049686000279,6.927580421639206e-11
65,2.000010419964686,3.042735565406952e-12
66,2.000008805169169,1.9512296217000948e-12
67,2.0018703596643865,3.567355266974165e-07
68,1.0070406505637517,0.0010680981715847086
69,2.0364722631333576,1.2682550114183864e-05
70,2.012168767199262,5.82848559552475e-07
71,1.003366510726895,0.0004232504337694611
72,1.0023334939779514,0.00039912062767761294
73,2.000110024304831,3.316223179422659e-10
74,1.9722029740484177,9.92143103278621e-05
75,2.000000612293062,1.3925051328563988e-12
76,1.9999745703014282,1.9934565947223833e-11
77,1.3904136831736427,0.0014720549229016672
78,2.0025033405595365,9.095743818113745e-08
79,2.000002456567038,1.5675289862037027e-12
80,1.5678023019473344,0.005078522238140242
81,1.991031586295376,3.173602056873279e-06
82,2.054386935646059,2.195659573087651e-05
83,2.0376988582285627,1.325456206084919e-05
84,1.0452072977895113,0.005458277530750689
85,1.9252082942337971,0.00019746733658391674
86,1.6507867651605193,0.0002829204029597719
87,2.0245435859636265,6.904999805766616e-06
88,1.9961900675575923,9.344696907936486e-07
89,1.3209184115600852,0.0144986097059302
90,1.1869054122718217,0.010120840335215415
91,1.1093381874301,0.008346476334454863
92,1.7870055406644902,0.0014928158537871707
93,1.0095379271833442,0.0010790559684363834
94,1.9999551212644453,6.214416342366561e-11
95,1.195988066609214,0.014190213721937276
96,1.9952546972720053,9.895284083463687e-08
97,2.000000008407273,9.963304249014608e-13
98,1.1606083050601186,0.01587122562998499
99,2.027206478231836,1.3159490291193325e-05
100,1.001253399322986,0.000250093770641216
101,1.9600967483513358,2.6229556200555382e-05
102,2.000242757811126,1.4186897916637374e-09
103,1.0123724314295404,0.002127283265690988
104,1.0365760776445965,0.0046055732762682105
105,1.6609821595117369,0.0011995562235431953
106,1.0152970079006256,0.002184427184804628
107,1.8137571363106126,0.0008129695739027382
108,1.0068784721257051,0.0013315604216624802
109,2.004680228874927,5.628538913620033e-07
110,1.6945731789942362,0.0009830272862167407
111,1.086241919798926,0.008668473161785144
112,1.0249335620596043,0.0036840715245079303
113,1.012721723797075,0.002120408590205957
114,2.004955430805179,1.1427625725555715e-06
115,1.9999999890420563,-1.4493737737614805e-12
116,1.9772902290471575,1.5303938212281542e-05
117,1.8793323866756348,0.0013015851291963167
118,1.5801726307790025,0.009075692487463968
119,1.1001388479330458,0.009206334536184333
120,1.9789047835015336,0.00012646988835688985
121,1.9976281589335094,1.730710944748443e-07
122,2.0008740605662036,1.9731222527308934e-08
123,1.8661364494899357,0.004874215688994113
124,1.9562955122810923,0.00045300528600263545
125,1.2384744956540468,0.012723048697076317
126,2.0016583188253088,6.335378188057828e-08
127,1.0259085777721069,0.0023850202170268404
128,1.0019820130841615,0.00035082567233053795
129,1.6026393905439815,0.004577875872428165
130,2.0030419479298174,2.0490906126840987e-07
131,1.0507733012284803,0.006054200972399639
132,1.9999997092345474,-4.949569164175366e-13
133,2.00000046218478,1.138890933904361e-12
134,1.6552157297735048,0.00271552781611373
135,2.0088052625114585,1.7698727626204617e-06
136,2.0000089583540097,2.3288431052944077e-12
137,1.0129883079761486,0.0016218689471071113
138,1.3966723904064178,0.002531175983491533
139,1.2159888497553617,0.010607701413419903
140,1.3782899619809024,0.0009822934141328267
141,1.5433067545442904,0.01240811963370443
142,1.974624680928319,1.960218394465052e-05
143,1.0232452679548796,0.0031604032739427418
144,1.6975922367833194,0.002693488173791912
145,1.0033499032437305,0.000676233010755805
146,1.313365027468154,0.0016267748478295569
147,2.066608638186655,5.218761418669984e-05
148,1.00462109483989,0.0007652894075445994
149,2.0071444263337654,1.4112777845205636e-06
150,1.478938350113073,0.001017614099116381
151,1.9871988017924838,6.013493152983771e-07
152,1.8322853830840313,0.00031516681906843
153,1.9281972855533924,0.0017903345581758697
154,1.3298888378486582,0.011549995415961075
155,1.1445562121570212,0.0025191147480481354
156,1.9493214270727728,4.1502686831639106e-05
157,1.041161690581892,0.0067741100015631115
158,2.00106736101187,2.9844921550794495e-08
159,1.2873633203369317,0.014747945554622001
160,1.0041925474967637,0.0007153133013942314
161,1.2409093737389645,0.006282682449998364
162,2.0000003574191325,8.552871583829707e-13
163,2.000050984759986,7.204329686038591e-11
164,2.0914341890277557,5.8407218357034966e-05
165,1.9980702667212427,1.0386960168412823e-07
166,2.0000051237156184,3.678626508608804e-12
167,2.050471990507483,3.384535893729171e-05
168,1.9998654612288447,9.199529954303743e-10
169,1.9914154268580553,2.7195606302774136e-07
170,1.9989034396070346,2.5020636975623176e-08
171,2.0000004286594972,9.635161657009783e-13
172,1.9966039968645248,3.4698243675545936e-07
173,1.3392671555132523,0.0022334727175042472
174,1.027737548317806,0.003447020258517951
175,1.8672929564532288,0.004507571449614063
176,1.121593161934824,0.011844260756722161
177,1.0492086132889895,0.004268030271007454
178,2.0163340958061027,1.4176370402990982e-06
179,1.0047416384965067,0.0007701511302223598
180,2.095316429098218,4.710438416421208e-05
181,2.000086253854996,2.0357141311346218e-10
182,1.0771462902021731,0.010031281474249988
183,2.0002187179474165,8.943577801843395e-10
184,2.000003340702287,2.2030372575357736e-12
185,1.9993800819292007,1.1786805116480375e-08
186,1.1335556432861922,0.008757660723991926
187,1.9597825455170816,0.0003009771058542656
188,1.0053135309063932,0.0009376759107693144
189,1.6364794186684086,0.0031601605749397898
190,1.3685424493378595,0.0038016686567339717
191,1.9933055900854835,1.3757660695757112e-06
192,1.7451183516300086,0.000788431284645011
193,1.1374784570289822,0.010772137712033114
194,1.98213096306094,3.287183564343087e-06
195,2.000762176694422,6.892104885056022e-09
196,1.5571221527141856,0.012883403345767283
197,1.0303384943746117,0.003026492550582108
198,1.8932344354791042,0.0008177473748415193
199,1.930350345141515,0.00034797399247920256
200,1.1698311456952717,0.016156002465417464
201,2.0958308653290927,0.000492885978535722
202,2.0221182987501796,2.7390608305552883e-06
203,2.0001848420093444,6.353039582205696e-10
204,2.0955009323294886,9.034102566863995e-05
205,1.291242786719592,0.009034915089035644
206,1.3297965641666252,0.011365150067503329
207,1.9078237174366743,0.0023612091619421203
208,2.1040672184693037,0.00016820455444003935
209,1.9850220482645884,6.841811598709675e-06
210,1.999998601828724,-7.183878941561904e-13
211,1.9689192596142868,9.854360076666034e-06
212,1.9997506787725192,2.5526781438454387e-08
213,1.9257970928500965,0.0017034799297824716
214,2.0002957482795214,6.614705214216072e-06
215,2.0047029961032385,5.470862540407259e-07
216,1.995839069308976,5.385972953916697e-08
217,1.1881433196457176,0.011130284665257083
218,2.000967683931612,2.521370776419889e-08
219,1.9580871904391004,0.00040814043578030874
220,1.0228586732317617,0.004394196978001621
221,1.9992602212392143,9.527112037111521e-07
222,1.9857296480692783,3.899013350522646e-06
223,1.9999992445817127,-1.700194622905155e-12
224,2.0161038887857363,7.158836930868043e-07
225,1.9999828467606875,8.828408040240276e-12
226,1.9999978658667443,-4.626395949573546e-13
227,2.0073377903720075,0.0005927655238488641
228,1.9542621218039498,6.319515019054339e-05
229,1.4124809989757596,0.009412199857625458
230,1.8747705773315138,0.002890026481340414
231,2.09108342416841,5.345073666200265e-05
232,2.008939392579497,6.020598155492539e-07
233,1.0532913261102514,0.006349595413611055
234,2.0039896328136964,1.1341695329603287e-07
235,1.8093433215930042,0.0015271834115014355
236,1.9428312787247226,0.00011879525759337254
237,1.9991056704101067,2.4811080427148483e-08
238,2.0027372790830884,6.624609424954504e-08
239,1.796587794897167,0.0013299045399212854
240,1.044513805891758,0.006281112922102457
241,2.0222073057608645,1.6961146024423396e-06
242,2.0022379978988085,1.3599241791287763e-07
243,1.013612572606576,0.0025464449187469723
244,1.7540077565208692,0.006867286964233328
245,1.6716011012886969,0.004766841865668766
246,1.4084827645763234,0.010744884594229275
247,1.0135210817960971,0.002131034539952165
248,2.002135358567277,1.1956510573574992e-06
249,1.1433462928652067,0.015595635404480567
250,1.3205221673586591,0.018062818539483497
251,2.0548861127871514,3.6158129083018805e-05
252,1.8900007285059461,5.941932278191073e-05
253,1.6802787432834276,0.010162656596539858
254,1.004051535597158,0.0007865753844337651
255,1.9382797302260133,0.00027660873672931196
256,1.11842866720643,0.008847038210416287
257,1.6823485410303218,0.004707768532595427
258,1.971331094928637,0.00011193860577247625
259,1.9765631818140432,0.00017334374640833904
260,2.0233842729192593,8.073880815171087e-06
261,2.0008588696775167,2.3036801154115197e-09
262,1.2140054738432342,0.01081865520121466
263,1.9038219545985278,0.0003467097156461499
264,1.010486271961452,0.0015964157771481303
265,1.3705430531077687,0.004963833429892105
266,1.305704778071552,0.01129773142505866
267,1.9979911633263712,1.1643576745659471e-07
268,1.0244434253544918,0.004301354373050705
269,1.766846375875454,0.0018649405559534504
270,1.7473379064157366,0.0014240621805037483
271,1.031129215943884,0.004718109107335063
272,1.0030091290704963,0.0005104628385937622
273,1.0958244511944146,0.00891204381634851
274,2.000154861896781,6.517707476633541e-10
275,1.9999431532584908,9.953834974671395e-11
276,1.966216050506468,3.4625077582262725e-05
277,1.8817624265293917,0.00041025581782690233
278,2.0154456171719817,3.34651195703085e-06
279,1.0563553174473486,0.006987047536268474
280,1.9789804681939631,5.7744543370651286e-06
281,1.9959072426650923,5.13139643045715e-07
282,1.340053116968889,0.0007949050014132876
283,1.985506547575201,5.123734677049369e-05
284,2.034019646839953,0.001223479921286245
285,1.401387440037893,0.0017700898833847714
286,1.0190477264493685,0.0038293106070444814
287,2.0103261941209154,1.4781072990079911e-06
288,2.0130273172373427,3.386084250036347e-06
289,1.0167020282469053,0.0021510048628351655
290,2.014049762460177,2.071680439188409e-06
291,2.033530218700333,1.3494965582543967e-05
292,1.9997586201524402,1.5828146332036984e-09
293,1.9743435355184356,0.0005510199303697496
294,2.041810160916872,3.14788622181598e-05
295,1.0107973801181251,0.001690324442627998
296,1.522846002919444,0.0008500292531719591
297,1.2545025917831916,0.014232522890029598
298,2.0424629193428285,2.821126371225859e-05
299,2.0000000039116763,6.51996055442709e-13
300,2.001539179662805,6.18247438417642e-08
301,2.094505143040169,7.333989557725378e-05
302,2.0000799690336932,7.958807369531671e-11
303,2.0002191213922065,1.2628992493267515e-09
304,2.0041280639870442,1.0436791213443334e-05
305,1.1785056823115412,0.007973552058681986
306,1.0072597676135473,0.001407658581180556
307,1.1699842352017278,0.01062742346589587
308,1.939889812180894,0.0001507894061610056
309,1.0150144830746128,0.002549565767548432
310,1.6732624793158775,0.0031239212945050696
311,1.5905824901521273,0.003465851207503675
312,1.148342467503456,0.013940927615803097
313,1.0421961052457411,0.005332406345618827
314,1.0553523953475732,0.006275031003884877
315,1.009626967463966,0.0018753167327539612
316,1.8461923472876702,0.0007023536459971891
317,1.0087021156547369,0.0013360544874652684
318,1.5316793339570696,0.009555166913738252
319,1.6048519616429984,0.005614101841009492
320,1.0059675934780936,0.0011494207117667555
321,2.0856705606086337,4.950031758266895e-05
322,1.0259128663761576,0.0044041316392817095
323,1.542460523156603,0.014029630171356111
324,1.8123194617739053,0.0008964339193479401
325,1.2966608506938242,0.019704590789560453
326,1.7048362135864,0.00048683131289447467
327,1.031616128784043,0.004999812418317253
328,1.9249436711219514,0.0001683183436168872
329,1.3353495538219722,0.0037565962156844933
330,1.8521162644119973,0.002584056999457216
331,1.8455040902466298,0.0015000213085577363
332,1.9998855670700293,3.9705478804607607e-10
333,1.3832683631253855,0.009792869141033613
334,1.6298169763743444,0.003600206150731753
335,1.0337932193608659,0.004465671768439219
336,1.3354615622491626,0.0010618435412582945
337,1.0369644785213825,0.006548139143681577
338,2.0001092455645906,3.522743663730551e-10
339,2.0071491719059664,3.2939246043765837e-07
340,1.2620402036942358,0.013120671323246789
341,2.0088642878653364,2.64623606609555e-06
342,2.0242639279410626,1.033007710401106e-05
343,2.0536987209764694,2.959170215093219e-05
344,1.0445048647843793,0.00515031219931095
345,2.0020174765768775,8.590913105635324e-08
346,2.0024574576469183,1.2428230415598519e-07
347,1.7084413248378247,0.0014504849873102131
348,1.8009251340594683,0.00018698871933073768
349,2.0007780972446683,1.558175891154531e-08
350,1.9999287171178917,1.5810175825025891e-10
351,2.0001767462197386,8.854151300455431e-10
352,1.0904890983837565,0.007847153857097007
353,1.1768930189883393,0.015102228477555907
354,1.999215236076845,1.8954840301425755e-08
355,2.0027345163214285,1.8441034428134228e-07
356,1.9999545340571463,5.386987168410901e-11
357,1.018761122665071,0.0025137038168583344
358,1.8357613103121884,0.0054478099019827225
359,1.999979405208861,1.3029277657544232e-11
360,1.5496144091572215,0.015304271229742508
361,1.5690292077430315,0.006663287114003015
362,1.8805533338812768,0.0020256146983603164
363,1.7483330463332858,0.003957215555873034
364,2.0001293382802605,3.266095941636433e-10
365,2.0034247331417525,2.62862189494506e-07
366,1.0070861475570954,0.001158530291802648
367,1.948434100228334,7.941317799665788e-05
368,1.9991217031250759,4.31689071747429e-06
369,1.004682088129541,0.0007405200388559416
370,2.000867302054449,1.9255551706481706e-08
371,2.0026088339138965,1.7898237341170636e-07
372,1.091958889520328,0.0018863528169875082
373,1.9985817071282692,4.91404863716709e-08
374,1.8914287318421077,0.0003515672854603932
375,1.0913268329392696,0.008046834872253779
376,1.2071137492187802,0.012356126615987286
377,1.4842825225105627,0.007483469579068156
378,1.972344535346419,1.4177447815549925e-05
379,1.0020424299449688,0.0003282983481504638
380,2.000001254401041,7.728593611557055e-13
381,2.0000024743755485,1.574715836707706e-12
382,2.0034956940910087,1.4441300737321543e-07
383,1.7018135929376854,0.0013450401365152388
384,1.9551834749197445,7.70493584298992e-06
385,1.8761208967137661,0.0013010039375758178
386,2.000269685919401,4.764050465758199e-10
387,2.001348648818614,6.281956774068256e-09
388,1.995059478927732,4.2062058304699296e-05
389,1.9999997826982976,-3.9749494263774013e-13
390,1.7054024502010887,0.001540182809474511
391,1.9999499738703923,7.644605832614136e-11
392,2.000165639799709,4.968901580778867e-10
393,1.9759481319690775,1.7455691592624777e-05
394,1.7032801793723051,0.00040636533122662816
395,2.001200843868801,3.230090035102219e-08
396,1.5334904207581452,0.013363673217408658
397,1.0046943819161784,0.0008191674175588203
398,2.000160122038422,7.604555385109653e-10
399,2.0000367972242956,3.895323756606654e-11
400,1.4024303145032875,0.01131280520008464
401,2.006151873232631,6.910676992601938e-07
402,1.2184963896396674,0.010152859858426656
403,1.8571971356385835,0.0010057707040995675
404,1.9300880614412392,0.00015023900740506775
405,2.002366969820079,1.489132316867557e-07
406,1.9911149889676723,2.8420967897333813e-07
407,1.3089811158110893,0.012560953371111188
408,2.0000613431905316,7.608104283347453e-11
409,1.0011192573181138,0.00019486870243076387
410,2.0498825147295467,3.5408430635930815e-05
411,2.0021261604926757,7.046095644319305e-08
412,2.000005285352816,3.7830831447655654e-12
413,1.9991572430535705,2.1865254699393926e-08
414,1.9998292046617292,7.822570952311836e-10
415,2.002197008958236,1.1623777350394538e-07
416,2.0046905128604298,4.3767363189117063e-07
417,1.0658496420664976,0.006344046793665589
418,1.277963260964661,0.0032303823150186526
419,1.9221407324646629,0.00015050085578616383
420,1.044537467747466,0.005535247739645067
421,1.022166711695762,0.0035421882816006386
422,1.9645093217595202,5.6749597892999755e-06
423,1.7744729739748226,0.0007213691228165395
424,1.9999754368951348,1.8602429322995423e-11
425,1.4825522503119946,0.001370241030847315
426,2.0103436201503806,5.977861188301006e-07
427,1.9191009620797972,0.0007044236923830041
428,2.000004559116298,3.029436379174577e-12
429,1.7473925903134382,0.00020125009308201696
430,1.9331322006921197,0.00010624558391214656
431,1.1514698396381964,0.007435973261523452
432,1.9647408913879352,7.589871779579331e-05
433,1.2072686751011874,0.011770439406880903
434,2.000257242236617,9.72190033508837e-10
435,1.4542250901597293,0.01699189341631163
436,1.6007056727730062,0.004278761591093428
437,2.0167817486284783,2.803411659933944e-06
438,1.162850290231766,0.0067462010009997605
439,1.9999975151850915,-1.2139877166026907e-12
440,1.890544443741157,0.0004027130168723699
441,1.3117913442811417,0.011968104325057545
442,2.0034969373508407,1.8752203283048742e-07
443,1.9989675036006938,3.100165521533419e-08
444,1.0022355884973149,0.00036716340596521164
445,1.4260111560787632,0.005288248085978778
446,1.0517725372810174,0.0019333709856619054
447,1.992715573744955,1.7397419065372391e-06
448,1.8602077886653452,0.0003925493791545357
449,1.0228415240045625,0.0013117220593928287
450,1.1751311530108628,0.009706762384972
451,2.00000010256037,1.480637508078838e-11
452,1.7317536341073132,0.0019148129531622936
453,1.9972094375728084,2.3947064170460564e-07
454,1.0585511641361425,0.005293910997604359
455,1.7118249867738955,0.006202920788872974
456,1.6585048008956398,0.0008544049460546042
457,1.9731259334105058,0.0014680464291268469
458,1.9916897163083107,9.13788554607135e-06
459,1.0119225618426453,0.0017645313627203878
460,1.9987091950005422,5.640432053040407e-07
461,1.5913628990438042,0.004366455339817192
462,2.0169550514273276,5.700477012971326e-06
463,2.0010570696330428,2.482649263576264e-07
464,1.3539996737954452,0.019166663591172597
465,1.9689580316670046,5.856051824267271e-05
466,2.0947316128567337,7.277268924049618e-05
467,1.831346401625439,0.0009011225646216294
468,2.0104200219971826,2.2458049891791826e-06
469,1.6924218219288039,0.00149215246883957
470,2.000065616475576,1.1400933305482004e-10
471,1.8792763079222876,0.00013577626073870956
472,2.008059721338199,1.3389740502577692e-06
473,1.0086229742337038,0.0016387085096173247
474,1.0024283042705426,0.0004904188242412675
475,1.9049179913222989,0.00011528008978725693
476,2.0000099155038225,2.9514570065019897e-12
477,1.970967464352818,4.492776198090319e-05
478,1.9855087448772726,6.874342537797168e-06
479,2.0901803531053815,5.8734271448465116e-05
480,1.9735064631371442,7.84308499588633e-06
481,2.0236461620700643,1.17591593214826e-05
482,2.0137781588477752,4.191696605479711e-06
483,2.0012614956596284,1.5541229572041018e-08
484,1.9064932255111722,0.00026495345114692365
485,1.7201227996398898,0.0001774796388939488
486,1.9909688028874546,2.5022519154666105e-06
487,1.9811719462934805,0.0003969170729908745
488,1.999843287996309,2.079537925793374e-09
489,1.9452420967817143,8.807334890527622e-05
490,2.0034340523321608,9.818017399575512e-07
491,1.900433002907941,0.0031619031597196878
492,1.0066007901490932,0.0013768821018981618
493,1.0408969457843504,0.006845737698112363
494,1.5533260114961371,0.0055367267287649465
495,2.0272928660177905,9.52934697255442e-06
496,1.6316795017338015,0.006936650271131018
497,2.0937941466095165,0.00022381019438087702
498,1.9145956296029645,0.00021671479134135688
499,1.670273997257841,0.003263109291483318
500,1.2808304731736382,0.012558518732485886
501,1.0753076840386175,0.004173785620628453
502,2.000467784463841,3.874445926972618e-09
503,2.0000002679243996,6.18833222473882e-13
504,2.0044942682635467,2.0541277054598698e-07
505,1.9925609831075146,1.6773738113645814e-06
506,1.0031541792362126,0.0006314095093950999
507,1.926905993944669,4.8699377637470166e-05
508,1.0058479634627857,0.0010327784286433223
509,1.0063981697811257,0.0006880627078071167
510,1.555089536686827,0.01207226651971309
511,2.0000393938868384,4.553638034333428e-11
512,1.0085360602471447,0.0012018627024934982
513,1.0037434218319123,0.0006602597571279392
514,1.999973399366361,2.1788906272173982e-11
515,1.7228100200378764,0.0010830889948679023
516,1.9885894373050201,7.073552655385916e-06
517,1.0046853833041365,0.000902541315697751
518,1.9978405262995467,1.4340552810957707e-07
519,1.475986076386129,0.0026825358532895447
520,1.8587458599678974,0.0030876391760805036
521,1.999162559382623,2.1583121313138314e-08
522,1.9980433808695635,1.1786470980348082e-07
523,1.9999827546577469,6.903041949296848e-11
524,2.0001219700751887,4.0989930894565034e-10
525,1.051693316155617,0.006010680260646757
526,1.6216323277356364,0.001959641605443485
527,1.99999687727031,-1.4352253362188045e-12
528,1.513629243702679,0.006032981891754378
529,1.2426464093585359,0.01661541148860387
530,1.229889916691729,0.010950183869299622
531,2.024709380225844,0.0004924575082029691
532,1.052455950558175,0.00680985194983676
533,1.420135816187167,0.008134199098574794
534,2.0073781233573413,5.516162006198312e-07
535,2.0202028941444095,1.934185591826452e-06
536,2.014625110542889,3.4748513736296433e-06
537,1.9692006057471088,2.8853028715465013e-05
538,2.0000772231027844,1.729200355826561e-10
539,1.9366558024774654,8.929844124045856e-05
540,2.000037278408626,3.8961988429307686e-11
541,2.0001731198289185,4.169822099850211e-10
542,1.9926040876754931,1.6731838018971205e-06
543,1.3083448738184378,0.016703517098345565
544,2.0000022481190127,1.0418997078658786e-12
545,1.5874737276832183,0.003012236433977856
546,1.835632267794709,0.001675771499604336
547,1.0922832678110583,0.009694027888650451
548,1.9998341905243342,8.132526871799862e-10
549,1.0838098539784595,0.005537450389049882
550,1.0092041426565503,0.001763642971992184
551,1.8096219684200965,0.0010732153041534364
552,1.020022548719933,0.0029096081152156536
553,1.819103644517937,0.0009385385379559455
554,1.213167079117142,0.006988683305013831
555,1.1890942920744474,0.011317545151770548
556,1.9975799177009075,1.5997975504939302e-07
557,2.000002805639159,1.7163773865607749e-12
558,1.978527080404129,2.7242733711683475e-05
559,2.0000001521502377,1.4221446006931358e-12
560,1.9978907270503155,2.329118241419833e-07
561,1.263105364083656,0.013622827307447445
562,1.6637364276651827,0.0034621584229008883
563,1.0244222405514247,0.0033378473502407207
564,1.9998540573580703,6.543892959481839e-10
565,2.004864251191012,4.594334910080125e-05
566,1.9981327377197886,5.147032103329325e-06
567,2.0229331335369225,3.399520830760101e-06
568,1.9995720199035223,5.695048503247469e-09
569,1.1875860464399528,0.012467755299188579
570,1.4732545767254166,0.013229232894752257
571,2.0050441416429945,5.415792002888439e-06
572,2.0246779165894147,5.6308399189006e-06
573,1.6027435541336783,0.004791923499265984
574,2.008827672617862,3.108861304153141e-07
575,1.9922663550186233,1.8341528837466714e-06
576,1.9996126997164787,4.6043096464847435e-09
577,1.010297662783562,0.002046833990906461
578,1.9999202150529984,1.9514328213289988e-10
579,1.9584355758105836,0.0031295587318146845
580,2.0191097067735155,9.566559095787248e-06
581,2.000002896021006,1.891326365477794e-12
582,1.9334265365548327,0.00013931559713846922
583,1.101956962210642,0.005918295012387541
584,1.4186010019296311,0.003441131120246683
585,2.0000013725414107,8.165640174900723e-13
586,1.5578737303061918,0.011054757123070415
587,1.0489155944452364,0.007525578262462454
588,1.1359690243987204,0.010173114629126295
589,1.7683183016514321,0.0010137623108225759
590,1.6218681207959624,0.009848772004067599
591,1.9999048163229436,2.790413719022113e-10
592,1.0230023782541904,0.003982834567024603
593,2.000000093936889,1.3591642628938938e-11
594,1.5899966746799947,0.000698652353582384
595,1.944985579594178,4.763608583139443e-05
596,2.010709677061639,8.387567846815717e-07
597,2.001905018704373,1.1601855631177622e-08
598,1.0566247212524176,0.007848754796018412
599,1.9983883128657616,7.994280508482124e-08
600,1.0256830100285963,0.0040186543116584915
601,2.0000099046992843,2.702308091351489e-12
602,2.0118323570284966,3.2934058345222656e-06
603,1.999381923630305,8.79316474488673e-09
604,2.000029791274216,2.4840121343316128e-11
605,1.364479466385038,0.008758980992336128
606,1.999998674414736,-6.901298083433737e-13
607,1.7373533514468529,0.007755011368571864
608,1.0365899682390685,0.004930401037524049
609,1.9992100942510298,1.905218439622231e-08
610,1.0288828404082926,0.004973572126767975
611,1.6503295616133244,0.00042275157569618665
612,1.8712226840542832,0.002076677275413713
613,2.0965689044979214,5.341440604088518e-05
614,2.0140475718526134,1.6477123438038892e-05
615,1.992951952961345,1.569048351893131e-05
616,1.1433069623937355,0.004243562414139888
617,1.0017882456394034,0.0003534693022710093
618,1.911164075753445,0.00012174660584250648
619,1.9926512126156932,0.001661679375563956
620,1.0224555792529542,0.003867545013137809
621,1.0887874791003345,0.008863000160984959
622,1.824638639259123,0.0006557185137659148
623,1.0166179431408047,0.0023153971720969624
624,1.3716713508068978,0.008744772267021899
625,1.0131407234003336,0.002356229142674286
626,2.001064750658752,1.1176265147391337e-08
627,1.3969272863687736,0.006374808989970481
628,1.9374982954598416,8.278238776250245e-05
629,2.0005449589573767,6.080836582298009e-09
630,1.2664910800088234,0.001604617720810285
631,2.0000537406245096,5.298169768033243e-11
632,1.7361155848061605,0.0008416176062014694
633,1.5666435878307925,0.0005567435813934435
634,2.0107921903186488,2.436330093259563e-06
635,1.6514140112411149,0.0038674165715778816
636,1.026464613851488,0.0030689297728527243
637,1.6380416645330498,0.0009511770579763284
638,1.0269855141509632,0.003763197963525838
639,1.9999972896440639,-1.2827012491720258e-12
640,2.037794210194359,9.729053108517373e-05
641,1.8979307553873315,0.0001893659789010587
642,2.014997837304882,4.356186841864822e-06
643,1.6392595454458423,0.0034976748941137298
644,1.1309959052022254,0.012171483785979039
645,1.5547896222125608,0.003478292682920794
646,1.5861703816244548,0.005983527826963387
647,2.005334073036188,3.6703449141956105e-07
648,2.1189537436110712,8.118771399077623e-05
649,2.0410551234616223,1.3817038319920792e-05
650,1.475758181789249,0.003351900301060829
651,1.8873645956125493,0.0003729649847235791
652,1.0540308045386129,0.00548125151737078
653,2.0000263888868,1.9619888733537714e-11
654,2.0596134222810023,2.5358470149037642e-05
655,1.0069540994165984,0.0012357664006383308
656,2.000709015691482,1.3473778000010086e-08
657,2.0073873139057032,1.2888645999422006e-06
658,1.0716524092403696,0.0025562417293749505
659,1.8826810439410022,0.00040403811700226477
660,1.6455200885011678,0.00044325131449112816
661,2.0000008547692634,1.884013090978604e-12
662,2.0000033801710266,2.2291442773048285e-12
663,1.8910713206435597,0.0007699552807617591
664,1.9091218859871786,0.0001576997166182251
665,1.0248240581122103,0.003942470667895317
666,1.1624351229160508,0.010522016110466053
667,1.2925706701567983,0.006624774624625611
668,1.084454340893443,0.008702183191367261
669,1.0322355840544934,0.004431062066607205
670,2.0000007343988138,1.686026801811335e-12
671,1.32935170661791,0.009739795208108665
672,1.9933542986622323,2.9993632785952063e-06
673,1.4171874390203185,0.014582569754749542
674,1.7762522467940332,0.002724022922636271
675,1.0133840674171612,0.002235680303457133
676,1.610521533450348,0.004412721159453898
677,1.3197134747404398,0.018141058047564888
678,1.1916740917302155,0.010364541028017588
679,2.045274859372372,0.0010025170949080802
680,1.427325070028319,0.002684723700259185
681,2.0001480307231105,0.0001572339011988392
682,2.0029300934602476,2.1125743745625985e-07
683,2.001670659361343,5.613770012506551e-08
684,1.5641134080484616,0.002550679712608614
685,1.3788462396948529,0.010172704473003478
686,1.790802922293206,0.007904343060160714
687,1.9998683756471818,1.4475618168074705e-09
688,1.665301306344132,0.004261338497889984
689,1.9824439209545137,0.0010672881026666274
690,1.0310088590370492,0.003956156534909527
691,1.9997854862870672,1.15218723199203e-09
692,1.0077742198011759,0.001035504693399176
693,2.0448404517631404,3.4621780060573074e-05
694,2.0130635928513776,2.820176295884246e-06
695,1.1778370732796917,0.010552762288025451
696,2.0080535164910382,1.323928964515633e-06
697,1.9999921131026717,1.8402793735582415e-12
698,1.099675645838094,0.012067966259422884
699,2.000597077610857,2.2781368619325406e-07
700,1.8008335425829418,0.0018348595535340735
701,2.000059333940799,9.648980640794393e-11
702,1.012269361718856,0.002292126846559165
703,1.9594645889930629,3.919328654507884e-06
704,1.1220937772092758,0.005824914057578724
705,1.2485837721903132,0.003601341928011383
706,1.8446089302070903,0.001223709373431104
707,2.0010627633156837,1.745156103839248e-08
708,1.9511888500620314,4.951938842089625e-06
709,2.0011266606197777,2.494588094679619e-08
710,2.000003127862838,1.8835817475764373e-12
711,1.0150698432262721,0.0026746143970632925
712,1.9999991806305328,-1.9408190527553916e-12
713,1.8900061467961755,0.0003554365836395456
714,2.0959730128942207,4.4260384341620073e-05
715,2.0002827439033974,2.353021459101942e-09
716,1.2899231559508533,0.013680940393576547
717,2.0006336682206762,1.0788127052414273e-08
718,1.1200655512099003,0.010092820046725596
719,1.9048340415485738,0.0004386306071911252
720,1.014416986983978,0.002484753202848388
721,1.022811949489229,0.004257437905819004
722,1.9244674424834571,0.00017209294321896955
723,2.0002206979968875,1.2291974847011925e-09
724,2.0113603162185054,4.4056172805267645e-06
725,1.9906469270619567,0.0007980581658463061
726,1.7728644270559721,0.007305226716895377
727,2.000456209568227,6.096352715559422e-09
728,1.9928135760690482,1.583033300495555e-06
729,2.0067983281151323,0.0015688022001620892
730,2.008213779584555,3.071869169386779e-06
731,2.0201056501190218,8.98895610677113e-06
732,2.003056655404514,2.2565492788314013e-07
733,1.1248367985016374,0.015292157446490887
734,1.9334019616775038,0.00025581827914357126
735,1.980009637288758,1.2094302890219148e-05
736,2.000022682639083,1.563865105861691e-11
737,1.0428018874126965,0.006504619517909681
738,1.012496557183304,0.002075987433948237
739,1.0398937206246417,0.006685698982958984
740,1.6890267342482475,0.00034513358494079347
741,1.9862328045331608,0.00035788677685401934
742,1.3948736328897449,0.018289855447920562
743,1.8316668535233667,0.0010756480489174994
744,1.1466245440595846,0.0076607535366609
745,1.0096484218706343,0.0015332107334087997
746,2.048812608449882,3.253905986663041e-05
747,1.6530179505552982,0.003385497014252965
748,1.9831213197934843,0.0005177400704153937
749,2.000029171558562,2.405263165451605e-11
750,1.0065970243570943,0.0007523864292945931
751,1.9487575902952212,7.908247154583004e-05
752,1.9587088103801027,2.1653706130457923e-05
753,1.0395009966775859,0.00356374734224439
754,1.7903173054693622,0.0006058026794753009
755,2.02913187799543,1.547560345255857e-05
756,2.0488353345600565,1.1272615279839317e-05
757,1.1983101007674108,0.015568768278904464
758,1.0037334089121448,0.0006442375040406681
759,1.0932851016325016,0.011227250236948053
760,1.4503158822937996,0.0065139548552667305
761,2.0316762223375955,1.7555457480893625e-05
762,1.968848272020192,3.4846572670004226e-06
763,1.099877118590768,0.005246049896880695
764,1.999318865154527,1.3039443433289104e-08
765,1.9759227705643174,1.7643183932957495e-05
766,1.999942057192653,5.640138255770825e-06
767,2.002909055613762,2.263180628888566e-07
768,1.9526743568954605,9.531588002014244e-05
769,1.7042805921857678,0.0026634556049465598
770,1.9456297740636617,8.894592991138829e-05
771,1.9995770994214452,5.506151337585925e-09
772,2.000072341887202,8.445212270743872e-11
773,1.945841459564366,8.793752208812833e-05
774,1.8656495120795322,0.0019482860655829102
775,2.006185510495655,9.134009783705629e-07
776,1.875431814237406,0.00018183399142875813
777,1.0168453749238058,0.002720396262589076
778,1.9939756433045481,0.00010103713503656333
779,2.00305505717813,1.4378897570569937e-07
780,1.0136281595086774,0.0024746140084023075
781,1.9430273979780968,2.7176829747741597e-05
782,2.0000000632730752,9.168001900101327e-12
783,1.3347726110484717,0.009953031080152976
784,1.9732992434945613,9.78723477731539e-06
785,1.922235861929267,0.0028940312504414085
786,1.5425705871311932,0.013661093604830974
787,1.629864606773616,0.0014995802886380357
788,1.4626010245390288,0.010783488012043884
789,2.001807510221721,5.6898703558759233e-08
790,1.7047707175818767,0.002816070485360183
791,1.0165130549729733,0.002499480425810642
792,2.05793349753623,5.6106840249306624e-05
793,1.0368653268960033,0.004733678402882541
794,1.7155401775174242,0.0018477786310610222
795,1.0406944301670091,0.0033992417394736584
796,1.9997557854607237,1.8361953278899758e-09
797,2.0050603945890138,6.724166262048861e-07
798,1.9186410657529405,0.00019697201770746154
799,1.5081632475788433,0.004834953849653168
800,1.0077468611614995,0.0012822151845703485
801,1.4592665883404117,0.002284419884033576
802,1.5698341666286308,0.004956828214375328
803,1.0117559161624678,0.0019327461544193132
804,1.0040979569214412,0.0007139852022868779
805,1.7991741640852594,0.0035745178562363537
806,1.133061318826791,0.010652955434794532
807,1.2399517862929212,0.011458115171833998
808,1.0296437824459375,0.0041629963358617746
809,2.0003277773632755,3.125364817726246e-09
810,2.000000876931044,1.9509192851516956e-12
811,1.3280434041204783,0.001171833372122049
812,1.026537321572971,0.003977551471658455
813,1.7093283267637487,0.002312449579088499
814,1.3828928116251724,0.008691650851218247
815,1.0014905266189795,0.00028067322743335595
816,2.068528481511869,5.191249837050045e-05
817,2.020021775840623,0.00044893630345484934
818,1.086055813917906,0.005203148938063664
819,2.0004891771575424,4.118021859491611e-09
820,1.5343916666332738,0.0035375047893354615
821,1.4543647849967998,0.00629231273356327
822,1.9916077919082749,1.199927253336307e-06
823,1.7026025695946654,0.0045822876656328474
824,1.0336751071264618,0.0032689294184667355
825,1.0529571312037336,0.006994902407374884
826,1.9601384960185955,2.2183761213233642e-05
827,1.8981161072437793,0.00030642610804953405
828,2.0118657883977247,1.2866992928372007e-06
829,1.8718915733514943,0.001469361118994011
830,1.9580189597172737,5.325541923498903e-05
831,1.9873385241451036,4.906092866978565e-06
832,2.0085720692045697,2.6626259242476324e-06
833,2.0793629093341837,3.090561887322794e-05
834,1.008576989553878,0.0013401973767986426
835,1.999999288727134,-1.5283329994895592e-12
836,1.0812876565047531,0.005637769425291496
837,1.9923385435386711,1.797189573445562e-06
838,1.0030244015118808,0.0005007770525713619
839,1.0310004429466817,0.004097357722207248
840,1.002040771363207,0.00035292609524119356
841,1.0035361943158694,0.0006665791302195569
842,2.000032937605817,3.048449636580935e-11
843,1.0157657211477378,0.0016993138057629675
844,1.0065623248831141,0.0013419567220970007
845,2.0704887388883497,0.00045433241562690957
846,1.994892360335357,4.1481677987800983e-05
847,1.0554643580183745,0.007732801556225225
848,1.551381482276466,0.0005722819245347965
849,1.231934783089381,0.013588918559740149
850,1.050827351033961,0.004596861189274872
851,1.999729967587442,2.2431562477395635e-09
852,1.6161832066829855,0.0071737187456165094
853,2.0114960195274754,7.230369634230342e-07
854,1.9997467795689485,1.9744681217746908e-09
855,1.7046819457908584,0.0002322756559862618
856,1.2738517819360307,0.01334242750942868
857,1.4826611270758525,0.0018133307028240172
858,2.0303029681126263,3.23196233869135e-06
859,2.0000574647187146,8.829851459040895e-11
860,1.006891005470742,0.0011551442028630537
861,2.007717962872122,1.229835099472522e-06
862,1.8936186280089216,0.00010714822465218065
863,1.9847399195093691,7.013487999965138e-06
864,1.66961888413764,0.00045284019305884726
865,1.1250456532829693,0.012565371898638052
866,1.0126974845542975,0.0015280602788185344
867,1.0376838196040274,0.004739950648714415
868,1.0092375213009674,0.001077560836394253
869,1.8606015644659786,0.00012366807294012273
870,1.0251897995978927,0.0035364223774298122
871,1.017511454012184,0.003012466319979109
872,1.005572633271089,0.0008125322884817523
873,1.8809391254211392,0.0004158672094658902
874,1.285307105435586,0.014882164847547698
875,1.1560659982771229,0.010751143805727552
876,1.238092912057946,0.0027606009715048885
877,2.000000823956174,1.894661709750022e-12
878,2.000415586882697,4.648676210854618e-09
879,1.9999966399373772,-1.5646083858701557e-12
880,1.0181589586840738,0.0030399283413465135
881,1.1461999953483835,0.008703881593646615
882,1.0021706848286274,0.0003460568078545286
883,2.001516787484118,4.810771843398849e-08
884,1.9981107845536081,2.0190763504224795e-07
885,1.9714510543026451,2.487197156295082e-05
886,1.3273239550932507,0.010484748592297541
887,1.9693334802111362,3.437547089970511e-05
888,1.901323042373215,0.0003746128690833179
889,2.019897605836652,5.437196568634892e-05
890,1.9766961662970737,1.438439438576559e-06
891,1.0075257125493817,0.0011974699211620685
892,1.8064397993190866,0.0023975660143236367
893,1.9598619241483113,5.670381021806995e-05
894,1.0448200477128728,0.006104708763899669
895,2.0002330028469775,1.4125683495862196e-09
896,2.0002735338431643,1.9802939660103947e-09
897,2.0000245272156483,1.8480665905076514e-11
898,1.7743550520459226,0.0005674388016934304
899,1.2343100719938511,0.017808415601653495
900,1.0249075360943967,0.004462283442589488
901,1.9995713779773312,5.656884009484309e-09
902,1.01473186251606,0.002251532824509193
903,2.002770054168295,1.8758723148670242e-07
904,1.9999375227848983,2.0283714807532586e-10
905,1.9091233893356687,0.0014222418525532566
906,1.1789421128965454,0.01076446274687806
907,1.5805132123795418,0.0019115117189583714
908,1.9870333465945842,3.1659415245348146e-07
909,2.00122141855114,3.101125408655009e-08
910,2.044143311381959,0.000519107692369705
911,1.9113610702743313,0.0002331491228162851
912,1.999827060120122,9.65586729742357e-10
913,1.9999999814651057,-2.8256583871237893e-12
914,1.806846649841823,0.0010637900384472458
915,1.7686813980113787,0.00037131600107585
916,1.879436400789201,0.000491312917010695
917,1.0338622538998155,0.004250185536664485
918,1.007783240472029,0.0012466912287847985
919,2.0000005676113224,1.2318542947049644e-12
920,1.8805712969583062,0.00019264257205786194
921,2.0003386709380298,3.2917729123593747e-09
922,1.898145656077982,0.0017692743458843122
923,2.0000341057802564,3.440570913930656e-11
924,1.5542540442790538,0.006770480777576117
925,2.00000926194466,2.148111601976132e-12
926,2.0018595829450394,9.188165721935154e-08
927,1.8657207809549607,0.00027238194846136856
928,1.962599749335322,4.000555061881373e-05
929,2.0000247891322274,1.2818707050114872e-11
930,2.0003609571304795,3.2822387441478e-09
931,1.2993737336753404,0.010334717267846967
932,1.1156086148723534,0.010093244310444695
933,1.1440246148948716,0.003000066095051469
934,1.0061402613614259,0.0010446070746203356
935,2.0000548175059847,8.809496257291257e-11
936,1.3711530189492875,0.008933001022035182
937,2.1093436156864165,6.493896178142315e-05
938,1.9314567543945362,0.0001404988080525091
939,1.5644132473114243,0.005207530044369623
940,1.2568192744648845,0.0021240446041524835
941,1.0906986434070824,0.009256948056852416
942,2.011087912690781,3.6153904670449443e-07
943,1.4982248125070425,0.0033904542097356037
944,1.9524816405883612,6.817641831195168e-05
945,2.062205419364573,2.2686070916733284e-05
946,1.019960241938239,0.0036970578996607826
947,1.9873208823276571,4.93650433430154e-06
948,2.043563521584286,2.3775782152966775e-05
949,2.000017851689692,1.0179666805062491e-11
950,2.0753967313057458,0.00013407793167037092
951,1.4018272560411125,0.0008389577582923562
952,1.1113634990532208,0.01381962681791494
953,1.2274924259559958,0.016332877660109414
954,1.2151113730882612,0.017103457465190465
955,1.0964226192154576,0.009303560998306388
956,1.0364861664875542,0.005624707413669608
957,2.0123381846950372,0.0002987435625649067
958,2.000213014685564,1.260381703454809e-09
959,2.0000068514109524,5.2872087278850045e-12
960,2.0020547389317978,1.1502958337925278e-07
961,1.54786764610085,0.006195258127678914
962,1.139573227420618,0.016085488719127378
963,1.968279063069975,3.0552582921828254e-05
964,1.2773233312251975,0.008840411322316383
965,1.0539334729921221,0.008014175533383754
966,2.0004331987874044,3.2855590172406526e-09
967,1.996985410089596,2.80516721836035e-07
968,1.7205042381190854,0.00035632519484258
969,1.654964365266547,0.003377224915951388
970,1.0042078391574967,0.00044742949935900564
971,2.0000020168001855,1.2611686025516583e-12
972,2.0574999050733096,3.393434346686455e-05
973,1.4970948979489616,0.00047901508461116726
974,2.000004530313892,3.1707431303915007e-12
975,1.004820092653801,0.0008259468323558331
976,2.000006016703198,4.330941847443558e-12
977,2.0027195929919364,1.7264822551822267e-07
978,1.9682455833423267,1.4487514266383008e-05
979,2.0057218803201273,7.463726416128528e-07
980,2.0004088875598014,4.6399980723876556e-09
981,1.0579081709364389,0.008873214192006628
982,1.7303184985976585,0.0007543056442146925
983,1.5626351145910424,0.000913820736443262
984,1.8532633366323428,0.0007744032943801748
985,1.9540882388922807,0.0004533065830223769
986,1.57167484770679,0.0015062385846068007
987,1.0855694990364055,0.0038733391554453076
988,2.007569871771927,3.3482833304801403e-06
989,1.0288577351463006,0.0026776852885125072
990,2.0005002393578577,6.2112708214299746e-09
991,2.0103068318733808,3.9558910835385093e-07
992,1.9823042630321988,4.3421366691294594e-05
993,1.8218195522907277,0.0008447562611575983
994,2.0000045255221943,3.1998590768928505e-12
995,1.5130074066087935,0.009153339670201118
996,1.4092510355566146,0.0053562792713231
997,1.9897048790918734,3.247282029341136e-06
998,2.001339380907303,3.2636965869491545e-08
999,1.9853126962649306,6.316879218047606e-06
1000,1.8931578343946622,0.00033754090699754976
1001,2.073833566167807,3.201009264562613e-05
1002,1.4663355799559863,0.013212308626633617
1003,1.0050314284572552,0.0006536821160544337
1004,1.9823266072569559,9.534363129041385e-06
1005,1.9999534995240442,6.662330655350252e-11
1006,1.0642617124189382,0.009266262622878416
1007,1.0480389526942089,0.006472210026696294
1008,2.0001499297278813,6.112355492349262e-10
1009,1.0120952759364137,0.0017313182724407814
1010,1.6721692893231535,0.0030063965161272244
1011,2.0046714309814697,5.381581438517288e-07
1012,1.0736610796463018,0.008364784598525004
1013,2.000752039307826,1.3086157982471703e-08
1014,1.7707887012383958,0.0014858749717633634
1015,2.00002473856592,1.757090753456394e-11
1016,1.9976004970531664,1.7636889616396382e-07
1017,2.0000184529163865,6.97819393201474e-12
1018,1.8693151721025012,0.0004921544371526244
1019,1.994520511619361,9.209328432988803e-07
1020,1.001200959366282,0.00021090397442079053
1021,1.9069766140261086,0.00026594342220347074
1022,1.9998887822285523,4.153179945816429e-10
1023,1.0059175629701123,0.001130465722625349
1024,2.0075782334118637,1.1014010865475779e-06
1025,2.000159998909603,7.178523704464038e-10
1026,1.7229340622296878,0.0030346018756536915
1027,1.692732687290975,0.002676205261574834
1028,1.138500142809332,0.006796244659172665
1029,1.0117751346999935,0.0023034881402934537
1030,1.4318987758235604,0.003249185545511011
1031,1.2906521732587763,0.01388914331336394
1032,1.997218362489999,3.213117556832831e-07
1033,2.0002513318580264,1.6534376362109154e-09
1034,2.0027138262123985,1.0111272399165743e-07
1035,2.012961232488829,3.2345537534941664e-06
1036,2.030950572673622,8.58754778303103e-06
1037,1.3154918376402642,0.00984428592998195
1038,2.0000390476839356,4.253516269903248e-11
1039,1.2764264100453193,0.009444696572553452
1040,1.9999999640499877,-5.2541622275079825e-12
1041,1.3316196205796582,0.009862221792296476
1042,2.010829594209701,0.00012342744397832967
1043,1.1470525155681905,0.010884725008081936
1044,1.8436659246404106,0.00022042121864141812
1045,1.040578825123142,0.006485420202315007
1046,1.0030806259654559,0.00027596296765540273
1047,1.514282057296242,0.00854275717701439
1048,1.0101018546532023,0.0015415974170526826
1049,2.0001176730405734,2.2803681036667785e-10
1050,1.080741251352842,0.007717888349950351
1051,1.1218566988715652,0.00803459131582457
1052,1.9550304171074935,6.24421830587165e-05
1053,1.1350878795279835,0.013915962413012583
1054,1.410313930450978,0.009457850657766761
1055,1.9994971195990938,7.786699820862265e-09
1056,1.8773723826494437,0.004483437464352371
1057,1.9792282923256532,6.698272315586145e-05
1058,1.447553626092332,0.011211727319341384
1059,1.5438567181480158,0.0033666195793152567
1060,1.0074700554508589,0.0012608468606607457
1061,2.014454574199064,3.702783026297503e-06
1062,1.4234391334898637,0.007238085685711264
1063,1.976207062019729,1.6843122661494312e-05
1064,1.0173002406228695,0.0023021363693694215
1065,1.2528124917750867,0.010182842886686009
1066,1.943109405164958,0.0003576519405328624
1067,1.9988687827354472,3.935591413364904e-08
1068,1.8636823189866711,0.0011151379469774327
1069,1.822806658808788,0.0009017185516701051
1070,1.8765020607461187,0.000752156432601955
1071,2.0004697356997676,6.253512784598921e-09
1072,1.965464280380111,6.688768797344077e-05
1073,2.016109017075139,4.385126473111022e-06
1074,2.047239532955526,3.907631573539366e-05
1075,1.9744128506279361,2.0068953961228268e-05
1076,1.8604562684622858,0.0012114678209805508
1077,2.0009863311274745,1.4058376687091374e-08
1078,1.3625832563819757,0.010363125031531665
1079,1.808725873197934,0.001049412522123544
1080,2.0124777932375237,7.096735648584309e-07
1081,2.0081912762047818,1.1980621811789604e-06
1082,1.6086358475904121,0.00535610593457086
1083,1.9824422623782956,6.856746573954611e-06
1084,1.8334472238197326,0.0021628833977791755
1085,1.06522273473414,0.00549149382351869
1086,1.9032768776207107,2.8995079247205033e-05
1087,1.8259244308915474,0.0004837823873457664
1088,2.107414963066888,6.985042266694247e-05
1089,1.025153083991325,0.003090225611439361
1090,1.1352939561732396,0.013501698292862014
1091,1.0438999581394206,0.006267430216643882
1092,2.0000238589720927,1.5528835959140984e-11
1093,1.003732935554036,0.0006230145171598795
1094,1.9008145501990088,0.00031695197631623846
1095,2.0000015979646077,9.989175756449256e-13
1096,1.2682784418486814,0.0011934562633277202
1097,1.9985665506614765,1.8329581516976428e-06
1098,1.901783763892101,0.00010399517200449526
1099,2.000000085237792,1.314594093577507e-11
1100,1.0819841470932348,0.00496696472240788
1101,1.999629847969026,4.287307416727028e-07
1102,1.9929551482674888,1.640115041489056e-06
1103,1.1063024432574868,0.008649249918324458
1104,1.0019767230423264,0.0003862843478895056
1105,2.1007876570603927,6.704697175850572e-05
1106,1.0621747275136668,0.004791283967308613
1107,2.001918690085441,7.136917441238926e-08
1108,1.999994194968211,-2.2210320091202295e-12
1109,1.9245385937859734,0.002862791166577609
1110,2.0411978951185232,0.0004127408219590446
1111,1.998784368492679,1.3522550098170254e-06
1112,1.0234324523833807,0.0020668397300307867
1113,1.8608589693033368,0.0003535454187756514
1114,1.9912019860170431,0.0010771424662340508
1115,2.017862921425471,5.8604029399602764e-05
1116,1.9994791452525624,8.35029308167452e-09
1117,2.0749153843468267,7.45032361407889e-05
1118,1.9968280579995168,5.712186180359026e-07
1119,1.9888865047838369,3.76320917173132e-06
1120,2.001255573447858,4.1410894862754526e-08
1121,1.9968894400646946,4.64032784066855e-07
1122,2.046201145811156,0.0010613271779062628
1123,2.000711401744972,1.2435789127594626e-08
1124,1.0077599097041878,0.001119495094332783
1125,1.2710451689177955,0.019379195609696132
1126,1.9841704266518043,7.622120270111052e-06
1127,1.9999885839134282,4.01995346491376e-12
1128,1.9937607391169978,3.843902861595137e-07
1129,2.0013195243047606,4.1674057534348255e-08
1130,2.027708073930035,1.4484303659067742e-05
1131,1.0048335094710776,0.0004297426541033665
1132,2.000159761008972,7.451281653761624e-10
1133,2.000013855138581,5.55535371399229e-12
1134,1.2011759237879662,0.005506269690112203
1135,1.0242625836038575,0.002999397414070868
1136,1.005805311800062,0.000980637162393508
1137,1.0190809508778873,0.0027251026915252473
1138,2.0118763649829075,8.213998038911908e-07
1139,1.9966759316756473,3.351063765171885e-07
1140,1.0789950739609546,0.009131543580051967
1141,1.9829199202404293,0.00020463690588517114
1142,2.0032040101058697,2.596685184988966e-07
1143,1.381254656628878,0.0028425909899919694
1144,1.5450186318573262,0.000515484447233158
1145,2.0000604129152255,1.0979035267992679e-10
1146,2.0165070140236407,1.4760271301929546e-06
1147,1.0198943132872225,0.0023564314063301717
1148,1.444024886350775,0.0036256996843332524
1149,1.012398733604901,0.002081219930208956
1150,1.9980116749492247,1.2183560983404641e-07
1151,1.931253311667573,0.0001412098165348825
1152,1.9488330637455957,5.463605944726949e-06
1153,1.5553759282817265,0.0010893335955763455
1154,1.847521965798889,0.0008097696320285105
1155,1.9974169699749185,2.0470210314657702e-07
1156,1.167755824154364,0.0046188254123388384
1157,2.0053654081738235,7.269753120759824e-07
1158,1.4525625044916015,0.007720735720285835
1159,1.3094402548056991,0.014882999576300251
1160,1.769509604463243,0.00039353837580261664
1161,2.118716686152094,0.0002463558433133051
1162,2.0047318944986396,5.897223125983643e-07
1163,1.8112684880106376,0.007061685172472811
1164,1.9994780398040606,7.984681608879818e-09
1165,2.037093168043228,6.775579376622898e-06
1166,1.1081320275613165,0.014272086741873809
1167,1.9678544467906747,3.723075663485172e-05
1168,2.000096688309061,2.627273558895144e-10
1169,1.3609044105602597,0.010868552823241302
1170,2.0000234302328845,1.5885043731928116e-11
1171,1.1923803734930987,0.017487545969210195
1172,1.002285087682591,0.000396453057625848
1173,2.005177999694822,6.653803120181164e-07
1174,1.9999988157475022,-6.196417991294055e-13
1175,1.0536549644021156,0.0067543427457773305
1176,2.0030806332352307,1.0660534884141755e-07
1177,1.9568330124133997,7.115788684454242e-05
1178,1.9999994245499706,-1.2739806600101857e-12
1179,1.6477491343910624,0.0010085267121591973
1180,2.0000508665810584,6.841952719956562e-11
1181,1.0679545882062684,0.006054592736674085
1182,2.0051484571469436,8.881888761579423e-07
1183,1.9929777656816017,5.57267985871847e-07
1184,1.0074376103564173,0.0011107217251522434
1185,2.0000032478531202,2.2268339771535005e-12
1186,1.0029346453233932,0.00040379011308512764
1187,1.6899896214058205,0.0029142252719737364
1188,1.1302319228553586,0.015581093968635659
1189,1.0042239119735572,0.0008649004235773714
1190,1.2699021111438789,0.018880927028902865
1191,2.0016408106303016,7.239380057933318e-08
1192,1.0873125256678702,0.0024361927412039465
1193,1.0668245523832987,0.005845010330690186
1194,1.7398176350892394,0.003955823128248234
1195,2.0005634989956427,7.812981491858585e-09
1196,1.0142246933992634,0.002113485862386123
1197,2.0071434073781727,2.3443338623619177e-07
1198,1.6280718813040995,0.0005128523225682952
1199,2.0002926295154566,2.3916632618515065e-09
1200,2.0647654469551533,5.24165937786068e-05
1201,1.9952093985288792,7.020109033398747e-07
1202,1.999531841999245,1.808768399998041e-08
1203,1.6019446617135875,0.004166970252526255
1204,1.4939097543461206,0.0010324185235872458
1205,1.7300661729163962,0.0010230409738600334
1206,1.9901710588504318,1.1170358868453873e-05
1207,2.0024122796634516,2.220812828227767e-08
1208,1.1698720587213265,0.0018921574573178225
1209,1.9071114412872983,0.004634101152558075
1210,1.865126747507958,0.0005305406615838785
1211,1.3567993436773704,0.01503663496451388
1212,1.8057720332407445,0.0012817276041183474
1213,1.9722532278704972,0.00011437915809242442
1214,1.9988126057804134,4.378257160518163e-08
1215,1.982013687428493,8.320312091243885e-06
1216,1.0047388685417087,0.0009226980203165793
1217,1.99303855008645,1.487432773483089e-06
1218,1.893146436004077,0.00033646479540430315
1219,2.00001328116353,5.2381708230641915e-12
1220,1.0154538331599179,0.002296286181475329
1221,1.9798425286215828,1.240012589680967e-05
1222,2.0348137582484918,1.0354823511452396e-05
1223,1.8869814942225884,0.0003166340735043769
1224,1.0062811492963053,0.0011706942207664688
1225,2.0015804109269326,5.250408773613683e-08
1226,1.0021388081914044,0.0003773054303960636
1227,1.8849582168589127,0.0003884803558891202
1228,2.0057744810842397,2.7432433562350957e-07
1229,2.0092401983815105,1.8437890501904618e-06
1230,1.9980708749075466,6.635929920775166e-09
1231,2.0047587066302133,2.3671125254007318e-07
1232,1.0299465817050601,0.003914487987604574
1233,1.1704310482146718,0.012059084863083425
1234,1.999984712174138,7.181207439973466e-12
1235,2.0002196995640498,2.1766051594399683e-05
1236,2.0000248248500334,1.7879237239249956e-11
1237,1.9999999734726512,-3.8725609193017e-12
1238,1.1125690974142393,0.011412378703628987
1239,2.0066664387606497,5.149292714077603e-07
1240,2.000003967673979,2.7393697403465774e-12
1241,1.738526216604461,0.0035462542217745766
1242,2.0002190022071886,6.32085696063306e-10
1243,1.9545973007288717,6.175515775347977e-05
1244,2.028761125145829,1.3885701977176606e-05
1245,1.6423882567434043,0.0018776556964827569
1246,1.9913790927661146,9.089614977010721e-05
1247,2.0002168140459173,1.321118674485006e-09
1248,1.0032484426138515,0.0005527771036169243
1249,2.002902399177941,2.0407093439361605e-07
1250,1.9982963432646137,9.045241027605881e-08
1251,1.0169702029288887,0.002987781270669651
1252,1.4350376487434564,0.009724950344984919
1253,1.010741388312992,0.0014128366989710226
1254,1.4292319722631808,0.005417922764990429
1255,1.0483865325531425,0.005346402044449779
1256,1.999877198884836,2.9233048460599413e-10
1257,2.007361162907429,8.557696962284265e-07
1258,2.0015485018343635,5.206773240685654e-08
1259,1.8419591105117772,0.0008095790938133022
1260,1.9739965990900328,0.0005183154940595669
1261,2.00012927057594,4.886531403289856e-10
1262,1.945159280825226,9.04460708619747e-05
1263,2.0000280658763767,2.2606556204110024e-11
1264,1.0354876589360864,0.00366200884012473
1265,2.0067772573234195,3.8127164313645557e-06
1266,2.0239989033880335,2.3724192512554135e-06
1267,1.11909034515974,0.012546215056008217
1268,1.785118312022432,0.00154908388764968
1269,1.90318234569807,0.00019311006195134523
1270,1.9365069644377446,0.00012080727940196256
1271,1.0036238064342238,0.0005382782618978165
1272,1.9759774213697843,5.2233440654739705e-06
1273,1.8529627901132288,0.005533047693947459
1274,2.0198597580197997,2.1569414932490037e-06
1275,1.9852248287943233,6.659073869397138e-06
1276,2.0722499305517212,0.00012999717530605623
1277,1.9987338562848413,2.831442430932507e-05
1278,1.0077791031112255,0.0009723798523175656
1279,1.989635995213002,3.2845427290572407e-06
1280,1.741971912709604,0.005389966547550305
1281,1.005779540520333,0.0009596760009659348
1282,2.0000036415175235,2.4371348971429866e-12
1283,1.001362039957472,0.00023784050420555056
1284,1.9297188684917963,0.0001476270277843525
1285,2.0000381754934184,4.2042932396094626e-11
1286,1.319678615820178,0.01923667654881825
1287,2.053559513336426,0.0009375384470984594
1288,1.2475117756076621,0.009852625833344673
1289,2.0000043654944695,3.1108752642431283e-12
1290,1.2998657638423052,0.001467374564053369
1291,1.0751287527129423,0.0062780908424971355
1292,1.9191401953869796,0.00010398341617324547
1293,2.0313857533903152,1.3825262802224031e-05
1294,1.0046991536950505,0.0007893100497216307
1295,1.2186938496784905,0.0068004940176250766
1296,1.980308826336627,2.507169767515853e-06
1297,1.9994044684392844,1.0925152251205004e-08
1298,1.9916723378165233,2.431572516307799e-05
1299,1.9761870139386015,7.663660772326737e-06
1300,1.5342839606252663,0.00587444064310861
1301,1.9966036014385267,1.6950489955184245e-07
1302,1.9378946288518355,0.0001187635997751845
1303,1.336214089412393,0.01588365904134376
1304,1.5998514254993503,0.0006338837755337135
1305,1.1510785390461802,0.0015409698912885088
1306,2.0448743209266342,8.131636347683876e-05
1307,2.0000019641942632,1.2509346319115541e-12
1308,1.9704337329234316,0.0024711884090764247
1309,1.0093677192896384,0.001578082743173319
1310,1.0296182659289774,0.0040133438870508745
1311,2.0225469680157286,4.344742304226725e-06
1312,1.621334490957976,0.00400018507812719
1313,1.9927813695736016,1.5995562854518546e-06
1314,1.1326220695132512,0.011949233978240055
1315,1.319437385216421,0.01676271458960072
1316,2.000003525610466,2.3721834322127145e-12
1317,1.7628326906686274,0.00180329252425725
1318,1.0224861788572495,0.00357909883940081
1319,1.1923156835550013,0.015618319328496647
1320,2.0561675078144557,0.0010854227898886967
1321,1.9999656243263424,3.63704450389736e-11
1322,2.074611477917719,0.0004629581786603569
1323,1.286678639149651,0.01939370036267032
1324,1.9565426405324737,6.805736987182885e-06
1325,1.962443169950685,0.0006451995939912537
1326,1.6859943291592199,0.0010162671854492661
1327,1.0286886863227143,0.004553396664921508
1328,2.0632465718941195,7.632672015835642e-05
1329,1.0470297038292298,0.0073331542323558105
1330,1.1454732166273736,0.013202205639138384
1331,1.5498164400485592,0.005797779766459699
1332,2.0076852618840357,4.642467952430549e-07
1333,1.359345941645156,0.007205013188315058
1334,2.008309409886784,1.1919628537352587e-06
1335,2.047021354807229,3.6906407223377654e-05
1336,1.007326078827601,0.0014471877172603136
1337,1.0135162353451783,0.0019847115010888598
1338,1.4635589127790989,0.007404726858814455
1339,1.4474378641295746,0.00897150538566061
1340,2.0734931334016093,0.0002938056647906911
1341,1.0367195533931606,0.00449010482232698
1342,2.058854898192761,3.386410428032177e-05
1343,1.0015337660518073,0.00025924811962343037
1344,2.0000095589373603,2.5168845798566725e-12
1345,2.0048089763172823,5.842488854018401e-07
1346,1.7532781907878603,0.0022303346664727395
1347,2.003218646999958,9.467432101103842e-08
1348,2.0072263951034763,9.598984519980722e-07
1349,2.0000343155438616,2.962322980491264e-11
1350,1.9661972362810185,3.507103332976846e-05
1351,1.0276834736419476,0.003941184950597593
1352,1.810882573352257,0.0001141005058157977
1353,2.0485302357756967,1.32041622556033e-05
1354,1.4093592050260029,0.0033783555424174525
1355,1.999974498591377,1.987597309929714e-11
1356,1.5178802737378438,0.008840898821590696
1357,1.9999999774318378,-3.342713633216793e-12
1358,2.036483694792905,0.0009004682297465959
1359,1.9263906290096169,0.00016173079522961096
1360,1.1566752335220836,0.007026911492587428
1361,1.0257345115870098,0.0031036285315272807
1362,1.0174240829305854,0.0017814268261819172
1363,1.9973215273823532,2.1992004186492743e-07
1364,1.0268473386533443,0.004087949614714582
1365,2.0032642447734,1.981235457240403e-07
1366,1.9785207772178999,6.450648807701902e-06
1367,1.8662880208591535,0.0007284930162939886
1368,2.033452714134071,1.0047186182053124e-05
1369,1.9451822490966761,3.689450916978615e-05
1370,1.7975986166997246,0.00705914530605165
1371,1.0228877314157512,0.0032884105285221612
1372,2.000003311788372,2.168990725683951e-12
1373,1.0008948348733033,0.00016345183203821906
1374,1.0041302197184667,0.0006624835206822575
1375,1.0066556613186852,0.001122420835176983
1376,1.9966085534343991,2.8675245745194535e-07
1377,1.049542462807535,0.007600959741333067
1378,2.0039748734714693,3.5823776738233845e-07
1379,1.92451448825503,0.00027327831434470213
1380,1.563547826346552,0.007914130784101572
1381,2.0054672771819106,8.294894988223546e-08
1382,2.0006048202976583,9.76861376463985e-09
1383,1.6418560183054964,0.00045961605303309033
1384,1.728300083583284,0.006619609691204008
1385,1.0132335821318565,0.0018699729127479158
1386,1.7461592943053648,0.0040180189805617775
1387,1.7121498560950188,0.004049679631669074
1388,2.1307315692624904,0.00012819656172429454
1389,2.0000262785080825,1.9051129697215504e-11
1390,1.8941359074867115,0.001418586578309968
1391,2.000000063763634,8.905455761476078e-12
1392,1.0260884625410776,0.002956159912413466
1393,2.0286190633516,1.279109313453884e-05
1394,1.998208311435862,1.752376580825029e-07
1395,2.0000030816087575,1.9912483246584716e-12
1396,1.0484992182155852,0.007973448053683874
1397,1.1308212720063304,0.009058591488437073
1398,1.341437689035536,0.019512610713801393
1399,1.0489610006201413,0.005837497711267033
1400,1.077259131553661,0.006394890292415582
1401,1.591540176725224,0.004453204527789576
1402,1.9578367439613353,5.461257445497185e-05
1403,2.0956878579551805,7.253428082908452e-05
1404,1.0039902324373737,0.0006773605450292504
1405,1.1554214044747428,0.01439276916064688
1406,1.9997658582362277,1.6877604683867701e-09
1407,1.9995422417748239,2.7063403808790637e-07
1408,1.0069226682895174,0.0009247087950502018
1409,1.9394101041292442,0.00011016269556166968
1410,1.3713430519793461,0.00114448740216827
1411,2.000001769228246,1.1482712720508445e-12
1412,1.8834348890464907,0.0004183016109541111
1413,1.0038818273105723,0.0005618608510030417
1414,1.7308878839250803,0.0024289754802574648
1415,1.05033035040266,0.005967915788844938
1416,1.998968619692246,4.2028201668410384e-07
1417,2.0280601574503994,1.2197701168626392e-05
1418,1.83763676335082,0.0008285776764536533
1419,1.9973727111662332,2.122406932965013e-07
1420,2.0000191808751637,8.692601968059126e-11
1421,1.9999915665241088,2.178059084511249e-12
1422,2.0035315040017316,3.1184793341211406e-06
1423,1.2689728069990147,0.010726372821742216
1424,1.4089419861801342,0.018859167822364752
1425,1.9948449127415986,1.0566740362581667e-07
1426,1.999440972328523,9.622964975943159e-09
1427,1.9185291836515959,0.0002833962258887425
1428,1.0322378541962598,0.00462520114936374
1429,1.9996129898472372,4.578837271257167e-09
1430,1.0680530356378686,0.007951551513297577
1431,1.005810839981275,0.0007996990612729354
1432,1.8265840367924973,8.632677682433741e-05
1433,2.0059005427837158,7.540879030690229e-07
1434,1.5940556732041056,0.003167968266779119
1435,1.9116954714203913,0.00020757268532006767
1436,1.0154454432015787,0.0017271220329830492
1437,2.002505295990609,1.2516199562262888e-07
1438,2.0002767538626074,1.929092845073617e-09
1439,1.4030188922501228,0.01152528341853072
1440,2.003291691113587,1.7954769911027636e-05
1441,2.0003413936449923,1.106818122501049e-09
1442,2.0000914412045923,2.364714994813165e-10
1443,2.002092052185861,1.1058187463922282e-07
1444,1.0045959945930054,0.000776624621080938
1445,2.0000001557085367,1.4836508317269568e-12
1446,2.003801652797671,9.470601082326966e-08
1447,1.1525919813775052,0.004632054152958694
1448,1.005515883800664,0.001051623327817792
1449,1.0868225267758318,0.006710357574803112
1450,2.000042950956997,4.0495312008317415e-11
1451,2.0233763898685164,6.996756657706351e-06
1452,1.0797262579909184,0.009615206258474507
1453,1.0257640278775173,0.0027177743653633187
1454,1.4347780756648074,0.005180404359360836
1455,1.0285472846344301,0.00508415367364121
1456,2.0330277654902273,5.969492542408474e-06
1457,2.0000000449483553,6.527842685079196e-12
1458,2.0000032845872164,2.1201095837104616e-12
1459,1.5628841611411761,0.012812815042540514
1460,2.000159886464791,6.230071499714561e-10
1461,1.010211487954381,0.0014093738964554758
1462,1.992719288989234,1.7124784544880514e-06
1463,1.0109985397510193,0.0018453371373940589
1464,2.0009920005006645,2.2952674360724263e-08
1465,1.9993064638829348,0.00024935042433337336
1466,1.0509278308504404,0.006443249646402444
1467,1.1010776871286672,0.008983793521033682
1468,1.6316081073231077,0.001438944475426717
1469,1.0039976672983275,0.0006744052539572693
1470,1.0592510366773047,0.006648708254698333
1471,2.0000116617516457,3.984320915137082e-12
1472,2.0000706783230933,1.3773405824804402e-10
1473,1.9997845745409368,1.4284173775300652e-09
1474,1.3943713882559374,0.008495716681388646
1475,1.0423392533805746,0.0054805708820379155
1476,1.7448990950484362,0.002010319797584412
1477,1.9998559663675803,6.447321970374542e-10
1478,2.000310542978465,1.8777291716647995e-09
1479,2.0078365212213214,2.0916751655372864e-06
1480,1.4690339633990668,0.010076915081226694
1481,1.9794677239514056,1.2859002488898607e-05
1482,1.0088114553259047,0.0017060469965345122
1483,2.0000000260771995,3.895972004943567e-12
1484,1.694912187702266,0.0006100451971186964
1485,2.0200575565898546,7.302368789878891e-06
1486,1.0062192380486101,0.0009648121754961316
1487,2.00034695062953,3.3549815277420376e-09
1488,1.0010383356437744,0.0001859764548377358
1489,1.9434007369619852,0.00010315085201489245
1490,2.004496846441559,3.599673187582988e-07
1491,2.000274334248331,2.082512113634547e-09
1492,1.8719721757493286,0.0004987191578850834
1493,1.9936620848777882,1.2333251304856303e-06
1494,1.0131367952426824,0.0020299004811300506
1495,2.020080318193478,3.5949819206717403e-06
1496,1.3799314260444548,0.005645111228084421
1497,1.0026833496011098,0.0004493889731309705
1498,1.7980339764912097,0.006062453869172532
1499,1.00954749451088,0.0010242142911942925
1500,1.9999852879112798,6.842886182862686e-12
1501,1.0225609610569089,0.003870487517593799
1502,2.036255636401394,1.8270807813363154e-05
1503,1.9787949168275347,1.3661986630632083e-05
1504,1.998773684771543,4.8652623770936746e-08
1505,1.5800944524103608,0.007811525065398517
1506,1.1958318642732528,0.01100673017850685
1507,1.6536156490986622,0.010839319635044422
1508,2.0005793260089124,2.186052763835458e-05
1509,1.9703096460665996,2.6780122852668218e-05
1510,1.0011460566168344,0.0002001721312935085
1511,1.8009328505313271,0.00011075349355430573
1512,1.1629790133524267,0.00711017380943209
1513,1.9664354463371188,3.292303995569861e-05
1514,1.9254368364218473,0.0002507757289753991
1515,2.0000008254446193,1.894754623897588e-12
1516,1.9928588543289734,1.563026682682995e-06
1517,2.0001017049791225,2.188881171276882e-10
1518,1.002412775746756,0.00043603158816867883
1519,2.000134349927699,2.3222321141656084e-10
1520,1.009538479623671,0.001833370857355221
1521,1.8912041047920092,0.00034857135941449073
1522,1.9912108431741773,2.0917832774437777e-06
1523,2.0126083277587905,1.3888310328137766e-06
1524,2.000002605335669,1.6936567258863624e-12
1525,1.3732196072949772,0.000777282994192767
1526,1.6583226061466814,0.0033319562596317493
1527,1.050186457981323,0.004526129899019358
1528,2.0000003171100578,7.088799745291085e-13
1529,1.0238520207392494,0.0041134712911076714
1530,1.0048471726711532,0.0007276501972973369
1531,1.1800339478020763,0.01378216802496767
1532,1.0397117982284092,0.0026942436211939164
1533,1.0105152267615107,0.0022143721541929397
1534,1.9897093687982688,3.0921943540518798e-06
1535,1.933331214274206,0.002772949954718262
1536,1.9685031312992332,6.241109896406137e-06
1537,1.341385543522368,0.019739646936760457
1538,2.0285072283435195,1.3654680798131487e-05
1539,2.0164188904770595,1.1430297998675126e-06
1540,1.0216418188760288,0.003753055422957071
1541,2.007816641532288,0.0008012242716476224
1542,1.999205288476746,1.8181858211314102e-08
1543,1.985625911628558,4.709719520564261e-06
1544,2.0002368542943034,1.6522948944047115e-09
1545,1.6513270120883687,0.0032769697181972484
1546,2.0001733663049066,1.3910766215222315e-09
1547,1.9914888872395424,4.4933432365304565e-06
1548,1.9938021561191814,1.1794012256163882e-06
1549,1.0035148377891094,0.0006932516635620851
1550,1.0092291740741526,0.0013255728769363654
1551,1.7994649212422487,0.0068244491459826225
1552,1.9932282402001331,1.3988573562399292e-06
1553,2.0047347099131114,8.30847134901181e-08
1554,1.0212393801932744,0.0038057289086960615
1555,1.901086489123941,0.0002934286310917859
1556,1.9535791687236297,0.0005665234712520288
1557,1.003361107662885,0.0005866595440274601
1558,1.9409086040273615,0.0003251488817808155
1559,1.9977173053368307,2.0472939108473402e-07
1560,1.9991721676858734,2.107565577855571e-08
1561,1.0036437799946387,0.000616708603160372
1562,1.9836133900165365,0.0007288670481366123
1563,1.374003253126615,0.0014849957765670336
1564,1.9587138754203235,0.0016198218319727878
1565,1.180784869553832,0.00823742781128191
1566,1.0433734683259097,0.004922713100353052
1567,1.0422309832719776,0.004989126930791955
1568,1.3251253615494192,0.01974122381111058
1569,1.9903423355892143,1.5694358430928668e-05
1570,1.015097049886082,0.002298793459989951
1571,1.0981885599112533,0.007146726085499726
1572,2.011933843510948,0.00024126835289743883
1573,1.9933286228468918,2.699587744205053e-06
1574,1.0235334320752243,0.0038662593980412475
1575,1.0056586716617761,0.0009514989236772196
1576,1.8387082481694024,0.0017517162882029228
1577,1.0141908080626056,0.002923689429829628
1578,1.999999670095806,-8.080841506068685e-13
1579,1.7199538213114292,0.0004963683817132183
1580,1.9059263892792933,2.7736764745493734e-05
1581,2.00316017721833,2.6995674735963433e-07
1582,1.9981325357288968,8.769545521594175e-08
1583,1.998198431015772,9.985321185188732e-08
1584,1.0606837321784064,0.007415018255117918
1585,1.7429964930546475,0.0034934375668483823
1586,1.9999846247603734,7.26710547622221e-12
1587,1.9858574311640746,6.127972692465967e-06
1588,1.9529532290988885,8.855885987903146e-06
1589,2.002695990326065,1.8828944820963804e-07
1590,1.161582343587244,0.01507173576131015
1591,1.654947492366406,0.00622747917073244
1592,2.0000331274244756,2.4914939568523338e-11
1593,1.2671304874773193,0.009499252789591045
1594,1.9999675865647164,4.633414329146548e-08
1595,1.8594194111252595,0.0030310496385347534
1596,2.07913884970481,4.3654445779320235e-05
1597,1.9992825969999686,2.37548059057206e-09
1598,1.3459404921402285,0.016952761833090937
1599,2.012224689646146,1.7571130474788884e-06
1600,2.00072964814025,1.771117110207106e-08
1601,1.1780336237451612,0.008706915735867252
1602,1.1049678638749834,0.011651327705267766
1603,2.000756659915748,1.0383307747012343e-08
1604,1.812537443916913,0.0019454486582581108
1605,1.935548468576347,0.0001247714425056924
1606,1.9999998711348261,-1.0331987913107457e-12
1607,2.0580118074035054,3.231506136103376e-05
1608,1.5327329823145939,0.009924890061068876
1609,1.5714850959612654,0.004864743163522781
1610,1.1221893292125513,0.010311094266259486
1611,1.9999995653211058,-9.868931297309208e-13
1612,1.1692238481846944,0.009311832629272591
1613,1.015323319092693,0.0024395480649490727
1614,2.000012284862787,4.08794660555078e-12
1615,2.0137133161761613,0.00010492539886289894
1616,1.9999947957244577,-2.1374311557277382e-12
1617,1.0052487485405102,0.0009339498846691007
1618,1.9999868521645874,5.390880176255946e-12
1619,2.000034797996021,3.262830465743536e-11
1620,1.9943040947471984,1.3344137262848242e-07
1621,1.9956516729907812,3.4640465436020073e-07
1622,2.004282939477841,4.843073338135674e-07
1623,1.9978936833485101,1.0863547469507201e-08
1624,1.3541622988935187,0.0045775164208825625
1625,1.0522237287774734,0.006014935155891289
1626,2.0017545426109944,8.277224076541206e-08
1627,2.00000004561321,6.6477464124447204e-12
1628,1.1120949626462615,0.014213460627795016
1629,1.0139592683149563,0.0018089837498380184
1630,1.8711327879768453,0.00034297979570217476
1631,2.0012517561574534,2.382441284371964e-06
1632,2.0009958012495264,2.4684748222309255e-08
1633,1.9559976841100906,1.3507797402289152e-05
1634,1.2103198985405494,0.004922630589760462
1635,1.8481582863214894,7.021182062819326e-05
1636,1.8542268780124629,0.000617372945117606
1637,2.0069946771839184,1.1847726956280222e-06
1638,1.020281093223059,0.0033193323982815236
1639,2.1289924241778095,0.0001044876671659766
1640,1.0035339860381265,0.0006160557839629566
1641,2.055754952722757,4.2167682115617257e-05
1642,2.0050649015123834,1.0665930544978887e-07
1643,2.005436068892387,6.186350215495782e-07
1644,1.9651840112854957,3.542019683003197e-05
1645,1.8071358691281547,0.00106051628833288
1646,1.9995394272309714,3.788315912816757e-09
1647,1.0784779700034886,0.008588438381866978
1648,1.999997016074643,-1.4149282780652928e-12
1649,1.9201941711214225,0.00019440881045460214
1650,1.9516415105863134,7.040336503742071e-05
1651,2.0004423061281735,1.3201198680741042e-08
1652,1.0030163570556203,0.0005148429149628316
1653,2.0000935140724474,1.1755178383157728e-10
1654,1.8515943034193738,0.00015055184578792062
1655,1.3834885472634424,0.015678893529064538
1656,1.9621101972785566,4.309244624476506e-05
1657,1.0372220361447277,0.006483952693918221
1658,2.0000008810271894,1.9962989187519507e-12
1659,2.0257593323539775,1.1877447626284495e-05
1660,1.9999999093661232,-8.528829235674702e-13
1661,2.0012479034611155,5.981262299312229e-05
1662,1.9188066783476763,1.0388672755661387e-05
1663,1.9640224156496195,5.0006946220597916e-05
1664,1.0561629014908644,0.007634274850531674
1665,1.1197410803576657,0.009199578996522215
1666,1.6549349833653473,0.010957049890362239
1667,1.849133762699571,0.000674297937175917
1668,1.9998186768375446,1.0359141183225105e-09
1669,1.9964636345229028,3.845251699053951e-07
1670,1.9980661287857273,1.147077720357667e-07
1671,1.9968544616195305,0.0005313786501404855
1672,1.032696764791938,0.00408422811662855
1673,1.1082590953913476,0.012950978308693531
1674,1.0127771812581527,0.0014870682280879429
1675,1.0078097579943361,0.0012608798405611527
1676,2.000115276202377,3.36052608779857e-10
1677,1.9999576876490452,5.495341215203348e-11
1678,1.0544402646190796,0.006456804744878536
1679,2.0000017277423123,1.0520180987956871e-12
1680,1.9714875807636854,2.4744166505579055e-05
1681,1.9792997037962248,0.0004593124420692017
1682,1.0196308129664124,0.002869288445317196
1683,1.771486787342731,0.0027320865512337994
1684,2.072504160312106,4.274567011224685e-05
1685,1.0209733816659872,0.0038848759623331974
1686,2.01430718547137,4.6753110233857096e-07
1687,2.0000001460096346,1.1382024996667383e-12
1688,1.972685643323777,4.688332475691367e-05
1689,2.000312752417184,2.7350105826544744e-09
1690,1.6587399976448138,0.0031393364399207725
1691,2.0295017286712906,8.358155939448271e-06
1692,2.0217703204569957,9.73852608531068e-06
1693,2.001061956750982,2.995557435979189e-06
1694,1.0474881076573737,0.004679092611922669
1695,2.016811082447782,4.296879966597434e-06
1696,2.0028098996302663,1.920539687090442e-07
1697,1.998224093203149,1.069771115797723e-07
1698,1.0407767760384437,0.005389585039831937
1699,1.999993095780537,2.0302300542379676e-09
1700,1.7465719084754592,0.00019236997691189102
1701,2.034353477931491,7.559171152338801e-06
1702,1.064429426580311,0.008553140444340192
1703,1.9475115104618501,0.0001528394718504886
1704,1.5097153399948904,0.0016393878772881926
1705,2.069263844334685,5.066222978223764e-05
1706,2.0082405199394016,1.2304226577349824e-06
1707,2.000838253344146,1.7319248757885563e-08
1708,1.9737304795145014,2.0943660010991047e-05
1709,2.00009888276994,2.022550765611612e-10
1710,1.994872158100238,0.0010005963809878043
1711,1.0417595501056742,0.0028375830274003045
1712,1.9591997821313603,0.00012735956331624875
1713,1.9013703675563227,0.00032629944875383753
1714,1.0652870851548677,0.010365911629162925
1715,1.00291959077129,0.0005664059226093484
1716,2.0888953308994833,0.00013182198647419143
1717,2.000700876975573,1.055783374459386e-08
1718,1.999833030975062,1.8366944673688678e-09
1719,2.000000010232174,1.2504534031394985e-12
1720,2.0043148649091007,4.552522573989685e-07
1721,1.0039658068982908,0.0008037559649550642
1722,1.4187127731984654,0.01576426636126846
1723,1.7006798684912439,0.0015078821834961938
1724,1.0355164099867378,0.0034943209410514047
1725,1.6329090497431444,0.01149840873553851
1726,1.9988621127935826,4.296236336687492e-06
1727,2.0887017632606897,8.223649690913385e-05
1728,2.0602339688949862,0.0005983063869179733
1729,1.6760480525967083,0.0052641070600528824
1730,2.0000019736187196,1.2484469213579333e-12
1731,1.1984583021542186,0.013704952985195432
1732,2.0018116319400288,8.782371847813296e-08
1733,2.000000987483395,2.173901927542385e-12
1734,1.9991777398433797,2.1912685364323295e-08
1735,1.9995975497537883,4.987921502895686e-09
1736,1.840646511898707,0.0010859543961249886
1737,2.0002975378127212,2.1868502396897452e-09
1738,1.8986636693222907,1.941949996313208e-05
1739,2.0091050336391083,1.7963345211624842e-06
1740,2.0002584429875445,1.8705295130541587e-09
1741,1.9992694998852782,1.6344018856852372e-08
1742,1.0096867981897948,0.0016874022812173413
1743,1.0069906963970612,0.0012185944461737645
1744,1.4156735632912474,0.011558111058993724
1745,1.9411362893789643,0.00017772307155493048
1746,1.5916749619772583,0.0010998750271680974
1747,1.9902643041908845,2.899896622407152e-06
1748,1.0291577024405212,0.004026673675907196
1749,1.4284209498588074,0.004349022220282898
1750,2.0001381823299447,5.521580724741163e-10
1751,2.00141910887413,4.1803513843699226e-08
1752,2.000908929010572,6.894165797860525e-09
1753,2.000335735935981,2.5664018645957755e-09
1754,2.000003198772856,2.1027868220089407e-12
1755,1.01450255019571,0.0020620226199509024
1756,1.0033714914527507,0.0005636920979053885
1757,1.9051955987544793,0.0005592900884126789
1758,1.789937579342353,0.0015707452866309927
1759,1.1087350314529045,0.009993932578779695
1760,2.00041017521895,2.2225265960359767e-09
1761,1.0265628076876012,0.003241761670309164
1762,1.0017155258354207,0.0003210235653300975
1763,1.9999055746974512,2.751342371493149e-10
1764,1.9930625786236906,1.475516215162578e-06
1765,1.7148377318640273,0.00021921981333628218
1766,1.9176528836355384,0.00040889970994771027
1767,1.025476987544334,0.0037570813485611936
1768,1.4889986825805566,0.00911817945463913
1769,2.000720731474521,1.246719756929754e-08
1770,1.9292023242124658,0.00017860287239049048
1771,1.9474738606878441,0.002010089179751297
1772,1.0225358687124022,0.0022174065712051204
1773,2.0508790411717936,4.071540138270785e-05
1774,1.9976364130641082,1.718977926012272e-07
1775,1.1847772779640404,0.01485738207720913
1776,1.344666807066639,0.015537754759480967
1777,1.0042523576288214,0.0008337179257698204
1778,1.0189926459203713,0.0037013675252714727
1779,1.2723682626324226,0.006143571240060351
1780,1.0553140035562005,0.006781125032675143
1781,1.5260019102736402,0.0007524078947064478
1782,1.4128814808591381,0.0017751584111031114
1783,1.0034070950838545,0.000606455493564659
1784,1.9612772819367326,0.00015206498226593622
1785,2.002425707431342,1.465547337747099e-07
1786,1.6245693484911246,0.0006421235175838857
1787,2.0285987176131717,8.74701577658642e-05
1788,1.0492159956690852,0.006689831405881912
1789,1.4744553391557083,0.010758898938177695
1790,2.0163412371055633,1.9894293808565606e-06
1791,2.0004848010061047,6.3600555592111134e-09
1792,1.739347140621977,0.008238841112879135
1793,2.0633119418882884,4.52216085874049e-05
1794,1.9790248545784812,6.429024091496779e-06
1795,1.1910053090864527,0.002179720208394795
1796,1.9662312138469058,2.88061140376911e-06
1797,1.0185463489363749,0.0027532990895374537
1798,2.034567162041898,5.014945571302065e-06
1799,1.965546279283529,4.644709927168885e-05
1800,2.0936591025875306,0.00013507391126824789
1801,2.0081643395068056,5.456424157051697e-07
1802,2.000002055853267,1.3019934572112541e-12
1803,1.0737721474467758,0.01073927523309307
1804,1.4088533983064484,0.008730223911368577
1805,2.0781542771063224,3.6494871177737723e-05
1806,1.912895534262651,0.00027029725504402216
1807,2.0000030303715706,1.8804196992042563e-12
1808,1.8676519857169984,0.003711638455180701
1809,1.1600213245929696,0.015445505562096088
1810,1.0049961130068006,0.0008426837519164437
1811,1.9991451883388138,2.2853102398503563e-08
1812,1.1767035297313138,0.011142280863956862
1813,1.9999854987297239,6.47684393630724e-12
1814,1.3039028766748386,0.00906152203549358
1815,1.9999981609185549,-9.363459691454356e-13
1816,2.011537738063575,1.934041958368157e-06
1817,1.8656754729231655,0.00045636333744459494
1818,1.8729992105206716,0.0008727682092628769
1819,1.9999982165315902,-9.036523087349075e-13
1820,1.0130223405125243,0.0022212816949717766
1821,1.2814612763895503,0.0014110715389271827
1822,2.0044611019070087,2.1016137389208078e-07
1823,1.0729814284474974,0.007898313282843027
1824,1.2225386268605885,0.011270982131122684
1825,1.0325154274688335,0.0048300966828665436
1826,1.9604220987742578,1.8445939556624817e-05
1827,2.0050160799525125,5.367671115143447e-07
1828,2.021106932589015,5.211382364907553e-06
1829,1.9803249537626655,1.1814803649302537e-05
1830,2.0360282378433174,2.3472116329867524e-05
1831,2.018250310817956,1.912073426629216e-05
1832,1.9993073466590139,1.4732140683126191e-08
1833,1.021961192811367,0.002489431562355041
1834,1.963961676355499,2.5031665652729336e-05
1835,2.023573223449073,4.9928968871325596e-05
1836,1.4163627661052205,0.0011456656468803682
1837,1.3291911226766298,0.0008518135961397933
1838,1.0017313727613633,0.0003006867406706335
1839,1.0540666871455902,0.007437140398712188
1840,1.8590420359199038,0.0005440623586353327
1841,1.7446901201338247,0.0005380179786547382
1842,1.6925901674505042,0.00026956616885286843
1843,1.4183286095574055,0.002697592212139774
1844,2.0004359643704404,3.9257173382102526e-09
1845,2.000235448746091,1.0961774631421536e-09
1846,1.700093191371,0.0025960178506554297
1847,1.9999957014787926,-1.744891169240169e-12
1848,1.2740383201650394,0.009128709968479016
1849,1.5302976978860892,0.01445449719941336
1850,1.9940256053074472,1.731881415543896e-06
1851,1.7333826363325922,0.0002952568764000189
1852,1.6886211020042323,0.00033790035671910773
1853,1.9998125273803578,1.0817288638526922e-09
1854,1.1831478599818142,0.010702669394016623
1855,1.0373843873029234,0.005682511139146334
1856,1.868539052400311,0.0009040981004470002
1857,1.7320844228573533,0.0002670147868577078
1858,1.9279961049739816,0.0001544677311631775
1859,1.5621011349596012,0.006516200964578704
1860,1.9421913006949412,0.0001233969070664108
1861,2.007922116452134,1.5279988208884094e-06
1862,2.0101437944221234,7.714071673478577e-07
1863,1.0045982357244667,0.0005309705681843886
1864,2.014870472658571,4.4735793016804e-06
1865,2.000526790435883,7.51569897487183e-09
1866,2.004028839334043,1.664344481874463e-06
1867,2.0000013501741,7.115767215115158e-13
1868,1.928288792392291,0.00014266047422349537
1869,1.013521009058164,0.002050260252640784
1870,1.8697975476353694,0.0004715962165040708
1871,1.9999888748558894,3.877776496386559e-12
1872,1.1286043893106454,0.003438004922154471
1873,1.6352979453358747,0.0008152144625955842
1874,1.5865331734817552,0.01130054747063379
1875,1.1656097353184387,0.015670070053540184
1876,1.999999382409555,-1.377744528231635e-12
1877,1.9758972608237604,1.6806502767027742e-05
1878,2.0000190947756953,1.076255405046583e-11
1879,1.0085768627892757,0.0007013367242338928
1880,1.8319402845284174,0.0007859114615974286
1881,1.893138358151922,0.000668453144252009
1882,1.0829148745365482,0.007716195848254127
1883,1.9990353143287432,2.8647451074706383e-08
1884,1.8425671743811631,0.0004835408999564518
1885,1.0683358825739202,0.009483337798383446
1886,1.9808634949088006,1.1180963644992505e-05
1887,1.883210098383729,0.000398255644359329
1888,1.949916048140455,7.721052782235395e-05
1889,1.2476218168408226,0.018510916395778385
1890,1.0109586540486715,0.0019341389742709395
1891,1.0138999805779567,0.0025875228673428036
1892,1.8167666262394386,0.004074834092508853
1893,1.8244293551395647,0.0037930814674048937
1894,1.0062122967642464,0.0010288230546971469
1895,1.8920137241494217,0.0012741973172042927
1896,2.0681516447628505,5.314940791915857e-05
1897,2.0000134915042462,5.1345759880644e-12
1898,1.6954502989561202,0.0005118099676120955
1899,1.3192260478183446,0.0008813825564994247
1900,1.0031755419612898,0.000539303070588573
1901,1.9972638065468857,2.3010770089092933e-07
1902,2.002360398011267,1.4723624361568026e-07
1903,1.0904825666576108,0.009939636531792768
1904,2.077783275413266,0.0003157477221230641
1905,1.9999862264391262,9.015733663951986e-08
1906,1.8842163328162946,0.0003952794174176699
1907,1.8976720750196558,0.00030870926492849467
1908,2.0148497123807467,4.46585699119387e-06
1909,1.0024679056278138,0.0003342324793378303
1910,1.9999959200167454,-4.468338547324572e-13
1911,2.0034875888004557,2.8661231386972557e-07
1912,2.000000045407856,6.379346658746757e-12
1913,1.1752180602636435,0.015675623888542357
1914,2.000000115272364,9.879043597798484e-13
1915,2.0000659421174203,2.1137851757324405e-08
1916,2.0018841114814814,0.00023982295901773162
1917,2.0000215163529242,1.3125072102528843e-11
1918,1.0533802233947982,0.006571706898716629
1919,1.3471823016077564,0.014654663442095876
1920,2.000533169909894,7.437226494355851e-09
1921,1.1068985616038238,0.005524404465760986
1922,2.0002219960965193,1.1094061575544546e-09
1923,2.0007041186248267,3.0872445565009456e-09
1924,2.0000003652035416,7.508604614659977e-13
1925,1.9681506618350382,3.079863681132761e-05
1926,1.0141780419429531,0.0025834816405872264
1927,1.3890590339093225,0.015365048878691596
1928,1.0216622517668659,0.0025917762813923544
1929,1.8980102180359444,0.00030662150855931855
1930,1.9927832519624664,3.050868757677787e-06
1931,1.8809014401131663,0.0002303483397488146
1932,1.9973583416153156,2.081792221691161e-07
1933,2.0000046532521365,3.25864452641419e-12
1934,1.7128320460471689,0.0014206590997809237
1935,2.0000092566544816,2.457425173998158e-12
1936,2.0113214174131935,0.00019216930367492045
1937,1.9740174674174165,1.0001889550184767e-05
1938,2.0002406589111756,1.535803063653303e-09
1939,1.999940083444782,1.112981522837709e-10
1940,1.9999998141765598,-4.234903309734925e-13
1941,1.9140063388404518,1.8690671277564726e-05
1942,1.9985783390024712,4.3690294634061144e-05
1943,2.001178723394572,3.828327225887604e-08
1944,2.015529346593201,2.7797431538225846e-06
1945,1.100544435365997,0.006539646976020966
1946,1.9538097494347775,6.383001499689047e-05
1947,1.4684198784215037,0.010413539199931352
1948,2.0018245414615423,3.3531919717894545e-08
1949,1.1544417024068059,0.0027708345649431337
1950,1.0054793144812266,0.0010660295235539474
1951,2.001183585435885,3.9101469190133474e-08
1952,1.9703746720024564,0.00022660595793519856
1953,1.1506508099977444,0.014881912645750329
1954,1.0161054532724851,0.0031242741964811575
1955,1.9902012424548956,3.154829041761291e-06
1956,1.400448673605334,0.010075388543153391
1957,2.0788713055470325,4.1228009909879604e-05
1958,1.9986704957507042,5.495928918535922e-08
1959,1.282080064447485,0.001376949628725515
1960,1.0220114659347268,0.003584083403590997
1961,1.4874265457376206,0.005450168363393774
1962,2.000114000931431,2.092928220135228e-06
1963,1.4029699867558196,0.0013993956019438115
1964,2.000073005228066,1.3786056305913542e-10
1965,1.0276491614748735,0.0029324717003270696
1966,1.98715323032782,4.0564954028446165e-06
1967,2.000134569102757,1.3710811180230065e-09
1968,1.5793279860883558,0.001752030777346061
1969,1.3871034069339465,0.004926784927509266
1970,1.0190317510731421,0.0018324789016536634
1971,1.447304509335449,0.004694441809639687
1972,1.8129749416445988,0.006284250621060449
1973,1.895848532893555,2.3258148300778392e-05
1974,1.9996491418883346,3.790400387555572e-09
1975,1.4523049540751283,0.014400344936809166
1976,2.0410316798622183,1.0124098841127411e-05
1977,1.0056410551025832,0.0009308750579373267
1978,1.194987387469235,0.013856907410844053
1979,1.9567137461806565,0.00039090626339512077
1980,1.0027119252092815,0.0004499562056158738
1981,2.016144168582886,2.4834187644013633e-06
1982,2.0883419317951355,5.351898622269893e-05
1983,1.795243846328204,0.0016514783574160387
1984,1.260748338691966,0.007945722515314653
1985,1.168194750739849,0.010584468234296037
1986,1.0085047418697957,0.0012183639351052496
1987,1.8536246294895695,0.0007017795093022285
1988,2.000110291024977,3.2254228920823416e-10
1989,2.0002748108777393,1.4650053516763037e-09
1990,1.0855445725195176,0.012447567639202628
1991,1.417649833697578,0.01593654427742621
1992,1.9852773442581144,6.636591485410058e-06
1993,1.7334106712896462,0.00264631422933714
1994,1.0261390693317187,0.003108519325567551
1995,1.4087204978326102,0.001148279666868733
1996,1.0128154175342612,0.001810341040249281
1997,2.0030988521806226,2.0630027837585715e-07
1998,1.984944805715785,2.6468429517547266e-05
1999,2.0012818123845477,4.107549700059274e-08
2000,1.262041334765647,0.0008337760409971646
2001,1.0027515200959412,0.0005013246634520145
2002,1.182688090858809,0.01766292848003641
2003,1.9751279930191161,1.8239777601009075e-05
2004,1.0506384104149078,0.006106360963052067
2005,1.8621160649628574,0.0012342496372481936
2006,1.0070387940065106,0.0012824612644655566
2007,1.9082868833061606,0.003188313819975962
2008,1.284793218505998,0.016041255329376936
2009,2.0591029450952303,2.5131348216485286e-05
2010,1.8718963016501486,0.0013108680626455805
2011,1.9437574055149422,0.0009140628104807581
2012,1.9984215125195746,6.630353897520728e-08
2013,1.5496820186499543,0.00654989855381651
2014,1.4503482394579783,0.007646417044430836
2015,2.00059650114439,9.179661983290344e-09
2016,2.026923675906257,2.8256304706121116e-06
2017,1.0082041051433723,0.0013242436988795772
2018,2.0028364064554496,3.096755166420631e-07
2019,1.0259337002630953,0.00375788069217501
2020,1.6730585883890108,0.00028556481963257343
2021,1.002135542336749,0.0003848726836220902
2022,1.0158727521846422,0.0013767520071978018
2023,1.0041964350730683,0.0007164454420170751
2024,1.8954942470679395,0.00032155083110472783
2025,1.9307845868141493,0.00010303021885657209
2026,1.3889943516598882,0.015580660103540265
2027,2.0937874892706234,0.0002827087552022832
2028,2.0822915151296275,0.00025719052604262306
2029,2.000244122193232,1.4669305903103972e-09
2030,1.906732925176581,0.0002513109132642559
2031,1.0068484396027206,0.0011527943685233427
2032,2.093145185095697,8.593813592239975e-05
2033,1.0078163069026547,0.001453622675247255
2034,2.0231346096385225,4.719907086771249e-06
2035,1.0370910165383533,0.005290749897519066
2036,1.267748707129775,0.018255701670087165
2037,1.9933874866711865,1.2062705132059214e-06
2038,1.0030587911724922,0.00048307422501363105
2039,1.828681419739336,0.0036242868709032137
2040,2.08147655750659,7.371464383775055e-05
2041,1.0752271153671438,0.00969225644730555
2042,1.0250999072502736,0.0033889331099075538
2043,1.9972123779749547,1.353825982670159e-07
2044,1.9010611574886787,0.0002893452629491337
2045,1.9484781827544078,7.300816015878611e-05
2046,1.0046131013516093,0.0008217509198183511
2047,1.925784053357466,4.501657999752464e-05
2048,1.9998146496465214,1.0591973130820001e-09
2049,2.0000680744208004,9.163528655827256e-11
2050,1.9886983682695412,8.61469406171583e-05
2051,2.0000393177610283,2.1186066978250173e-08
2052,2.0800685414924485,6.271918618963617e-05
2053,1.8327684813580085,0.0008412389006826521
2054,1.0229978238693218,0.004342802079011238
2055,1.989844897445715,3.1584055202504454e-06
2056,2.0018854423934656,6.539582096840612e-08
2057,1.9801640807184484,3.6773739097445066e-05
2058,1.6844556884060042,0.002734448794385834
2059,2.030232233835241,1.7161232736184238e-05
2060,1.0171468110191686,0.0019650582053051518
2061,1.0030410398350424,0.0005135828547581545
2062,2.000171987909013,8.465463680067078e-10
2063,1.08700689180186,0.008615628280294815
2064,1.6892957678333207,0.0010583614177109278
2065,1.999962813026546,4.160812265652087e-11
2066,1.9818938197380405,9.248486619167149e-06
2067,1.9935099192362977,0.0002293625485097339
2068,2.0120249990539136,3.190356838805289e-06
2069,1.992190396052021,1.668175578724866e-06
2070,1.9818073940916188,1.0119448114285556e-05
2071,2.0081513340747295,1.3388986415062373e-06
2072,2.0298483978469153,1.1715436959185185e-05
2073,1.0096018648152496,0.0016922287294210655
2074,1.3334593188087698,0.01567595346417835
2075,1.0471489854904164,0.005972242048213305
2076,1.4749650483415608,0.0005559886674999645
2077,1.0077202494683077,0.001406752871894419
2078,1.3547786736579568,0.00252925703821924
2079,2.0057230904094108,8.363123964909439e-07
2080,1.1882655657942192,0.01777755970119369
2081,2.0000703688091286,1.479968785720115e-10
2082,1.9989558433152907,4.447090311464343e-08
2083,1.2432628417040639,0.013284605643097852
2084,1.0444258729108904,0.005390503618436396
2085,2.0000286645609133,2.2449527681124126e-11
2086,1.6712513422986677,0.0005532406953293522
2087,1.0144393810479306,0.0028235339934134353
2088,2.0000000287644366,4.066124610905987e-12
2089,1.0197816315384982,0.003546412520801673
2090,2.000297949859309,2.4147096487094114e-09
2091,1.8942424088178937,0.0003283759378536875
2092,1.17522955556579,0.009641641269308922
2093,2.000009364040364,5.438487866747165e-11
2094,1.9863322202545126,5.5652364906762725e-06
2095,1.306731725161986,0.009980720383831045
2096,1.9975788536282488,1.8028293234747406e-07
2097,2.0134668054312876,1.3018357289240233e-06
2098,1.5782301560295973,0.0008950380348229239
2099,1.0512019715950254,0.005693978231149742
2100,1.9358657892638924,0.00013699999898870337
2101,1.0172612788508142,0.0031396650971807633
2102,1.6643002223450631,0.0028922144971697196
2103,1.999432721518186,9.902758297277704e-09
2104,2.0000335690906526,3.315392797481581e-11
2105,1.0442221784285162,0.004656091012244818
2106,1.5002794986114343,0.007062359119501655
2107,1.1435793874279097,0.010928420248597595
2108,1.4070747234080063,0.0096011488006343
2109,1.0468360713518778,0.004196372783288729
2110,1.005318826412722,0.0009993923019016202
2111,2.0017678824086347,1.0617114630942532e-05
2112,1.996245650908248,4.3305843438211014e-07
2113,1.2079760237621864,0.013368977443052075
2114,1.99176772169987,1.8325843726131395e-06
2115,1.9373561585126744,0.00012074715525573424
2116,1.0221800123645748,0.004426804412025196
2117,1.0102176425254776,0.0018855681130761023
2118,1.8027338027673296,0.0011606516275906407
2119,1.5181100073687692,0.015046005597548704
2120,1.9983863386886311,6.510942488268893e-08
2121,2.005844256110725,7.401954772419691e-07
2122,1.9995915384226906,2.3479995170527494e-09
2123,1.9999688337058201,3.005465633772177e-11
2124,1.9984984951368783,0.0015431029199529315
2125,1.0085293786577405,0.0016805817641233573
2126,2.000855118526109,4.7094113442130525e-09
2127,1.7825288645697948,0.004015427805428252
2128,1.0443394586045076,0.0046918432128963145
2129,2.003943763779842,1.1515619257810976e-07
2130,1.2660471508816047,0.008478025543302731
2131,1.5080520747528452,0.006891734648651992
2132,1.9708837768818575,2.5772097444749772e-05
2133,1.2200693677072907,0.010006133775598088
2134,1.8639938104262894,0.000538416379258294
2135,2.0000603075790173,8.97591225423602e-11
2136,1.9765765285557124,1.6640761352085475e-05
2137,1.746634468116598,0.0019383406583908858
2138,1.9914303961279434,6.047291779010487e-07
2139,1.064721145650688,0.00587293646890525
2140,2.072248339088133,4.866546541125287e-05
2141,1.0249652120738912,0.0032996180910308164
2142,1.9987456488723772,4.8306786432866204e-08
2143,1.9889096951193186,5.2682076358170925e-06
2144,2.0038633265702614,2.0698053070162228e-07
2145,1.8353442727573772,0.0007750948944254832
2146,1.9981353127192207,1.0699502501637734e-07
2147,2.000079355848669,1.0265347608199722e-10
2148,1.0434734462064081,0.005734005421558518
2149,1.4560833882643824,0.006853992942772101
2150,2.0000202644731564,1.2084725283000491e-11
2151,2.0710732859657113,0.00032698564534996304
2152,2.010773045621248,1.2334397126668656e-06
2153,1.0333790113447021,0.00480973233326965
2154,1.0179613173102855,0.002663804908449429
2155,1.226283862671929,0.013751757189098728
2156,1.9999956343230787,-1.7447060937058643e-12
2157,1.959048580423964,0.0001531813300161315
2158,1.987293985733859,8.158932840003395e-06
2159,1.0054275256755347,0.0007603762063867444
2160,1.9710331239244572,1.8432284434704594e-06
2161,1.8291466188927192,0.0019903046084124255
2162,1.247085719144452,0.011816147970805763
2163,1.014345419175893,0.002466111966481827
2164,1.999686984697434,3.046729415211186e-09
2165,2.000020094595347,1.1156978681957595e-11
2166,1.8148596064619933,0.0009815844579215255
2167,1.8431478129247372,0.000837516751128165
2168,1.0076602882187797,0.001075903375368371
2169,2.1254302978484834,8.953936392293713e-05
2170,1.999690387593063,2.9498158336258514e-09
2171,2.003290228203167,7.68369040948089e-08
2172,2.0079954402652485,0.0010787980070065609
2173,2.000018348710307,9.491401832479286e-12
2174,1.98690978364294,1.5934820143060024e-06
2175,1.0591388870477891,0.006893738764691463
2176,1.089555026708443,0.009376768542556693
2177,2.000054777636659,8.676246864194576e-11
2178,1.999742780306221,2.0569938805223504e-09
2179,2.0167043865342067,5.067304689039966e-06
2180,2.0000000928014843,1.3375902348056696e-11
2181,2.000000468918971,9.76943762060178e-13
2182,1.0470719806355282,0.0057086438064268925
2183,2.0129318068369373,7.68234174873195e-07
2184,1.999972505815753,2.4525381236719314e-11
2185,1.8699698793628823,0.0007096666828439996
2186,1.3077893431208283,0.01778192993931691
2187,1.0140084751126868,0.001895227735967364
2188,1.7947614325851158,0.0005572267935234478
2189,1.4586828217376728,0.007301236980113318
2190,1.0284292160918778,0.0034909126345513486
2191,1.1774552193893384,0.0013203645365723498
2192,2.0245610960084526,3.848794744955784e-06
2193,1.8139712372738495,0.0010748515608679464
2194,1.992147590319319,1.8914572335510068e-06
2195,2.0242519939155836,3.6159104365683986e-06
2196,1.7739117667850461,0.002111713450065524
2197,1.034124412562625,0.004683020378873256
2198,2.0278491557224614,9.604288914764942e-06
2199,1.2164194802523491,0.00842157327987012
2200,1.2791240342632033,0.010302833224773692
2201,2.016166894492804,4.0927649848390675e-06
2202,1.025391953612297,0.0020508651076307505
2203,1.9416794757114695,0.0020076742486242172
2204,1.3890924417391235,0.018210156451048454
2205,2.002393644435008,5.168802329413077e-05
2206,2.0070806501006113,2.4018029536365034e-07
2207,1.9998322776537654,8.620723534521593e-10
2208,1.8520732731721217,0.002406154815175774
2209,1.9999999671544484,-4.718098752385235e-12
2210,2.0140835090029534,9.895103746507053e-07
2211,1.0240701619737058,0.004196210030428509
2212,2.006813248539163,4.695495530263506e-06
2213,1.017997387117992,0.0026246614309440226
2214,2.0020987139097173,1.2272458997855395e-07
2215,1.6533602158944836,0.0028950664613910495
2216,1.7293049588482008,0.00023526331733935804
2217,1.4755421963599828,0.007291988348010684
2218,1.7962788817871544,0.00011237675264840422
2219,1.992808741327858,1.5873271359287431e-06
2220,1.279896656505757,0.008581993888161396
2221,1.0128127918031213,0.0012116960774991446
2222,1.323706871014527,0.009498081023852939
2223,1.6026908970517721,0.00044972207672438943
2224,1.9981073639189029,1.1229904802412021e-07
2225,1.9999992807623508,-1.7869898183336458e-12
2226,1.0036285213483331,0.0006185211297767051
2227,1.9879040215655392,4.937213673481343e-06
2228,1.363685477679655,0.0005295946575079541
2229,1.900511822479736,0.0002925046960278321
2230,2.0002091591935414,7.754979153175888e-10
2231,1.1036322366104283,0.013253989351624834
2232,1.2633210964915482,0.004449710503054215
2233,2.1187922504470653,8.567286439125705e-05
2234,1.9954987821473995,6.227125888161806e-07
2235,1.005113535301831,0.00101800613635193
2236,1.07229731869363,0.008271693422838126
2237,1.9894228244443675,4.249638747422829e-07
2238,2.0000596735929888,8.429405061060136e-11
2239,1.2900697744170373,0.0040787311295413416
2240,2.000015152353332,6.273745324409046e-12
2241,1.388660243911094,0.0026198664146744833
2242,2.0000175474300703,8.631632086102432e-12
2243,1.9998994161278874,3.0853515270357656e-10
2244,1.9588401270191427,0.00036965145712666636
2245,1.3917154679758965,0.0007827841675705819
2246,1.0632227448685367,0.00459647955675575
2247,2.0223546294306334,1.9833077682795496e-06
2248,1.5502839868925424,0.005353982955573166
2249,1.2347548238965345,0.017348763142200182
2250,1.993734394758025,1.4432362324768242e-06
2251,1.5244467972444116,0.0026770027266099124
2252,1.950765403998162,4.3138775714089215e-05
2253,1.0092674142281004,0.0019392443191136332
2254,1.8158941588045574,0.0032462794981611936
2255,1.3197820939602816,0.0024979440327464
2256,1.9767591298938307,1.5668653339608027e-05
2257,1.9748040751168832,0.00035324820334898193
2258,1.00125705415202,0.00023980525589741464
2259,1.9951357700808274,4.5967522190869893e-07
2260,2.0002951393598254,2.3712801750255274e-09
2261,2.0079347620953545,1.1697121649279547e-06
2262,1.5480957727722262,0.004172329083814468
2263,1.6433935476838841,0.0003608347629929128
2264,1.3989450416659546,0.003883567743808155
2265,1.29930585021203,0.0031070149784244135
2266,1.0021449692203706,0.000433898705513425
2267,2.0074526347027173,7.040333406386108e-07
2268,1.9893859199381323,3.4093646174399974e-06
2269,2.00005938308529,1.0511104004209369e-10
2270,2.000090278898649,1.814147891380124e-10
2271,1.5297173393848116,0.00640463181877071
2272,2.0097207420683163,1.1873745770523895e-06
2273,1.9533832976416285,7.000523507997186e-05
2274,2.000171956193222,1.5542911919750968e-10
2275,2.002759996901464,4.195361616343044e-08
2276,1.8201557126608692,0.0009670023113114855
2277,1.0096251184007645,0.0015329178650144988
2278,2.030407421940677,7.154157087099038e-06
2279,1.3910422997609995,0.0074501286415884025
2280,1.0861854729439047,0.004751090152567998
2281,1.41867413303207,0.005462006552958534
2282,1.9392062632460443,9.747603408200569e-06
2283,1.0113151963934863,0.0019248450179245816
2284,2.07745436677983,0.00034022254937980613
2285,1.1525254182116866,0.006791165011223905
2286,1.9986107077602158,5.894890666954714e-08
2287,1.6304199685481464,0.004158668110177309
2288,1.0168011527111247,0.0025468832726318518
2289,1.9996646860417788,4.14387717414315e-09
2290,1.677023818565543,0.005657200649931939
2291,1.8475943205343333,0.005321121405867792
2292,2.0001206536328793,4.2313398039591125e-10
2293,2.0042251839723932,4.655449740607112e-07
2294,1.9881969681705893,4.236869723615219e-06
2295,1.4372751785284592,0.009588732521158026
2296,1.9998233839416453,1.1132590986673203e-09
2297,2.0009611759563932,2.1099240909912855e-08
2298,1.6723326211050922,0.007248072077418819
2299,1.5002009367700306,0.010096509352923593
2300,1.4948050397283923,0.005012357271774634
2301,2.000065076697292,1.210464832496872e-10
2302,1.3034431643760087,0.0015584447913564645
2303,1.9664079434679969,0.0014562085304275487
2304,2.001464592502362,5.638462962685502e-08
2305,2.0000000397789504,5.7183754661349486e-12
2306,2.006687969210106,3.670071783595805e-05
2307,1.9994480560352796,1.327370045449552e-08
2308,2.0005392385734786,1.7844979492213887e-09
2309,1.9439332726831737,0.002830616789045827
2310,2.002028977668925,1.0355043031063836e-07
2311,2.0081018445435728,4.812883542799636e-07
2312,2.0840889215936826,3.678656833263902e-05
2313,2.0000000178401476,2.6115177316938804e-12
2314,1.9999975757600574,-1.162409188798663e-12
2315,1.1264166461235474,0.009396974672287648
2316,1.3238645089163434,0.014087207626412544
2317,1.1531578817944628,0.001863179337394764
2318,1.3026311277756941,0.004040229041340295
2319,1.0047717858068521,0.0009568055963825764
2320,1.7951918716928776,0.002695727578552029
2321,1.9803478221288107,0.0012370576181695658
2322,1.999999348758006,-1.6103061502487928e-12
2323,2.000022422724131,1.253869350438421e-11
2324,2.000000418292499,8.90659801923359e-13
2325,1.9999988371349466,-7.179166785573859e-13
2326,1.2920538563010164,0.00888504289281287
2327,1.9999999522117704,-6.895994899429611e-12
2328,2.1152747910371406,8.629328737019351e-05
2329,1.4674399080765548,0.006909096556346283
2330,1.9988898519436558,5.089875817154933e-08
2331,1.096207538080963,0.0038867496323509395
2332,2.0046544975812983,5.292747467866355e-07
2333,1.8345618645739719,0.0008055792250727304
2334,2.023546173227098,6.0556771559665685e-06
2335,1.9682485925417437,9.055754144068468e-05
2336,1.7069900978867778,0.007443513896487783
2337,2.000061566273714,1.1270920340374035e-10
2338,1.9614417837800349,0.0004719964228433896
2339,1.9972059069117274,4.1134900630576585e-07
2340,1.9969101761395258,2.9360334014592035e-07
2341,1.026324887224539,0.0028723826357235816
2342,1.2680874492997114,0.0015479830848959771
2343,1.9799222041788258,1.2033314974279485e-05
2344,2.000009730324061,5.7529546118807425e-12
2345,1.0018601303942192,0.0003124785066826542
2346,1.0052847350584828,0.0008680257731907222
2347,1.8286772185726057,0.0008736053202877917
2348,1.2925342208912802,0.010835292498139096
2349,1.3553862944371522,0.00266053906016942
2350,2.091391689060803,7.541847840758963e-05
2351,1.305946883863104,0.004745588882201111
2352,2.0000157116705495,6.669914498608063e-12
2353,1.9997046149738842,2.6926176647702084e-09
2354,2.0000528670092614,8.188497813910745e-11
2355,2.000453272802354,5.416501718590742e-09
2356,2.0000097684291864,2.8070162935727886e-12
2357,2.0300298835386985,6.742219329423707e-05
2358,1.4550145157698027,0.0012470213923261714
2359,1.9972550638158284,1.7447049410462053e-07
2360,2.000026841539455,2.1277339918815056e-11
2361,2.117804518319206,0.00011823535345326677
2362,2.0441966459441305,0.0001804518862761366
2363,1.9757498156313895,0.00013096646104397686
2364,1.975375174068955,8.947014844943394e-06
2365,1.9995799318507006,2.998015854712907e-09
2366,1.6112317599555683,0.006480636533149333
2367,1.0379431057518522,0.004116169809001648
2368,2.000290949025219,2.46210689142691e-09
2369,2.00113070706484,6.510691567994621e-09
2370,2.00117827350149,3.021753643924068e-08
2371,2.0005347960633677,6.51927167851122e-09
2372,1.1294717494799764,0.009990441510474563
2373,1.9762302113275632,1.5057895471061217e-05
2374,2.000000534242116,1.228431961836502e-12
2375,1.051615890355229,0.00546257153620214
2376,1.9461821029427162,0.0019437901889204064
2377,1.9238454591597465,0.0035926329586099437
2378,1.0848945251591564,0.011103722017593035
2379,2.003674866694967,1.72319276090879e-06
2380,1.7428184449378594,0.0020899562432632507
2381,1.9408507948759919,0.0001700176720941022
2382,2.021763445921314,1.4843805970980804e-06
2383,1.546499759401516,0.00650171066076921
2384,1.0443834607741331,0.0049113848631424165
2385,1.9997981357036765,1.254531683704048e-09
2386,2.0049555693186636,8.993132519314756e-08
2387,1.2507626289246339,0.015076362553493788
2388,1.0558302235711705,0.00783651516811282
2389,2.014155261263203,2.3003148534130667e-05
2390,1.9467292441430535,4.57587906465145e-05
2391,2.005150883344992,4.7071981949022477e-07
2392,1.6458873476432916,0.0040962174624562244
2393,1.9374038290846283,0.0002720331007626335
2394,1.6434668467800932,0.0011958023128235359
2395,1.9962700715650707,8.705224594099875e-07
2396,1.999996897267538,-1.5634784522829688e-12
2397,1.9999912037780652,2.3529823874912646e-12
2398,1.7167320709081157,0.002055121545575021
2399,2.000006859334625,5.2467018347957245e-12
2400,1.0020283147096554,0.0003336542069657562
2401,1.9482356984562326,8.094545094038261e-05
2402,2.0421178323506344,2.2779196532855013e-05
2403,1.9998766532573264,8.570905626266884e-08
2404,1.6782185528047118,0.00035095075625037644
2405,2.00078429608172,1.5515472697089046e-08
2406,1.7408502978998095,0.0015718024479056492
2407,1.0056519448168737,0.0008457853275889149
2408,1.011544852341733,0.0016969132797409491
2409,1.1761510985951822,0.011051228398657886
2410,2.0000001660104054,3.765540336280624e-13
2411,1.006369334681217,0.0011257627667858971
2412,1.0105670454997893,0.0016356167309619803
2413,1.1026658252909036,0.010360910892657182
2414,1.5426029167661899,0.005564873850749891
2415,1.990878155223859,0.0007275023307682544
2416,2.00345657718993,4.22412904875128e-06
2417,1.3547309140036712,0.004378352866188454
2418,1.647401188451281,0.00964318797455426
2419,2.000071199112369,1.2256124170813606e-10
2420,1.0077621389560825,0.0015587127779544425
2421,1.9990657766508797,4.3822902777072397e-08
2422,1.9973103387657554,1.0930077736917906e-07
2423,2.000000016483487,1.7807333884253586e-12
2424,2.0131254480511775,0.00010358403865610398
2425,1.9946473646404916,7.95553027005189e-07
2426,1.9114049674250104,0.0005254890351282126
2427,1.1668365222507917,0.012302998180555231
2428,2.004210050710161,3.402364819383087e-07
2429,1.0486292179980576,0.007627995389909601
2430,1.9930580804531548,1.4793096591276927e-06
2431,1.998670422887229,5.213823511175091e-08
2432,1.5856401143169763,0.005770619553086339
2433,2.026318753865084,5.184055718118919e-06
2434,1.9999921421400375,1.8529205675747043e-12
2435,1.030000324808245,0.004151296078198427
2436,1.9324519130141837,0.00012888141896785283
2437,1.999999560549535,-1.0286827468590458e-12
2438,1.8790164073411297,0.00014045058073769545
2439,1.5901244272404367,0.0021404571948455413
2440,2.000070861153814,1.4179208659972733e-10
2441,1.1678872551870865,0.010311270494137817
2442,1.0175780077179069,0.002979334862336622
2443,1.503630263401818,0.0008569406314136551
2444,1.5788114816945227,0.004629355202035903
2445,1.014973102669948,0.0024821900115853664
2446,1.9797398073292296,2.677701195510053e-06
2447,1.9520035775874955,0.0005437429290615231
2448,1.1126729528595958,0.00949941194009412
2449,1.9385537799208934,0.00011739075192253824
2450,2.0003346525583225,2.7952624375237573e-09
2451,1.9999999418398293,-4.367866756963838e-13
2452,1.0138749987083704,0.002248046108438793
2453,2.006084802126653,5.069293104407574e-07
2454,1.0042200940759098,0.0006819754300332306
2455,2.000068971396897,1.1893382707490577e-10
2456,2.000185305150913,9.219172029308524e-10
2457,2.0376459787093633,1.0377037224454744e-05
2458,1.9294949050971468,0.00019224172123553557
2459,1.7617192500090133,0.00010131529687659274
2460,1.980953741938485,2.0252820267096497e-05
2461,1.9918714083130702,1.3005346416024476e-07
2462,1.026931373602701,0.002212203143846011
2463,2.001657983042484,6.917428798886498e-08
2464,1.998047847269915,1.725573727746283e-07
2465,1.0026857013452348,0.0003528804799668545
2466,1.7793399939990975,0.00014233735614272832
2467,1.4789313891148128,0.00069603444348118
2468,1.8760769150193872,0.0007217299102548005
2469,2.0001209010987426,4.301572150331409e-10
2470,1.9997656654367892,1.6931609642130096e-09
2471,1.0181467944273495,0.0029699915906541184
2472,1.3201880992000539,0.0005484197716681625
2473,1.8447289238525753,0.002607146164292173
2474,1.9940934684705878,1.0720577604604776e-06
2475,1.9936816830455364,1.2149491600033556e-06
2476,1.8962667866821747,0.00031085416684419623
2477,2.0089765538937865,0.00012867511271617935
2478,1.0052610967168087,0.0007586169658986259
2479,2.000035461159393,3.482609315474502e-11
2480,1.8027119230968114,0.002008160402624221
2481,1.0250812938791154,0.003114496885893069
2482,2.1050126969877496,7.047613865098244e-05
2483,1.0025647481227935,0.00041836310998154963
2484,1.9995479442514847,6.322437571049954e-09
2485,2.00297548926661,1.8142285633723468e-07
2486,1.8846423047880199,0.0004978892764248456
2487,1.3930251808487957,0.012212334734486827
2488,1.4836476882717162,0.0007143976810877957
2489,1.0150521125335272,0.0024647794007769653
2490,1.5278361886297782,0.00559334864565084
2491,1.3740614176815669,0.010602962360578212
2492,2.0333389960451362,1.3133376555026328e-05
2493,1.951947026141881,1.5854336342029353e-05
2494,1.322774980774008,0.004353328205018449
2495,1.9017702138084682,0.0004116202078536944
2496,1.043335208749138,0.005065884016218111
2497,2.015628258930952,0.0008801049761312053
2498,1.0930294991535208,0.005808588096779377
2499,1.0019992226358094,0.0003460165901624558
2500,1.0689360657109124,0.008923820691687989
2501,1.1330951141038856,0.00634737588285778
2502,1.0025892055575998,0.0005213389822702565
2503,1.0133544358455377,0.0016151513682719958
2504,1.2245023532923844,0.01192434478564468
2505,1.8535600902569216,0.0005790478635160918
2506,1.4247578377729089,0.005483725379129264
2507,1.8774365532999533,3.7673864050892796e-05
2508,2.0343110736296586,1.925856964081873e-05
2509,2.0012402066708943,1.3636780487257894e-08
2510,1.0023272988810044,0.00038493044849675895
2511,1.0346862337660425,0.004543498517634768
2512,2.0000164229914303,7.68354821755763e-12
2513,1.010391094819133,0.0016759505010225451
2514,2.001987045755785,9.709317237737604e-08
2515,1.0514524330490445,0.002871850346499808
2516,1.003806265415864,0.0004042380647484801
2517,1.9797841933925153,9.081118414351241e-07
2518,2.0132449815025595,1.0969589610294835e-06
2519,1.9869511150980732,5.211137780337118e-06
2520,2.0811072968355173,4.8951053009083233e-05
2521,1.9976543149923147,2.4234890128988795e-07
2522,1.0165527668728989,0.002328369751913699
2523,2.000064381527991,1.1723876607306148e-10
2524,1.5597093374738438,0.004181057239022768
2525,2.0008054668708137,0.0001030179672811065
2526,1.5572242674184353,0.00841924928713317
2527,2.0002112061773207,1.1011293795066286e-09
2528,1.1537278526259087,0.010564398497856259
2529,1.9999793973497852,1.2827277692308317e-11
2530,1.9883434119519128,4.053304853698826e-06
2531,1.1724196120121453,0.0034986019085717556
2532,1.0213776733921667,0.0015649294935647616
2533,1.9998293778210914,8.962213242204866e-10
2534,2.0122852594855107,5.956081602848477e-07
2535,2.000036830392423,4.0014423656524754e-11
2536,1.9999807203368494,1.0966853590265716e-11
2537,1.1509492086832676,0.009951213216213763
2538,1.0170941487260081,0.002649542761925232
2539,1.6366478299515406,0.0006771576238696133
2540,1.9815652143523723,0.0009056964559842556
2541,1.1953639069921078,0.008089324060453727
2542,1.8325663454268624,0.0028389245493249163
2543,1.0518569288137152,0.005903751314399101
2544,1.9861940440436974,3.7296197183275164e-05
2545,1.4224037534019123,0.0048528116694542996
2546,2.049956644160975,1.4038227725701992e-05
2547,1.4612758420400702,0.007458264965100854
2548,2.0538756525221817,0.0005287516407363085
2549,2.0928692186765794,4.953883645740648e-05
2550,1.1783781292735858,0.012633065209867084
2551,1.6467341084184426,0.004258563555229992
2552,1.1105204067763734,0.009833008005122759
2553,1.9459105961323577,7.922569189846981e-06
2554,1.0088629933817412,0.0009634909638884657
2555,2.094682971744523,5.687408486495919e-05
2556,2.001057740098545,3.154851784065672e-08
2557,1.998090427123233,1.0990505765213088e-07
2558,1.7482794502134615,0.00018813592604404445
2559,1.0326971192424483,0.0039861594844601105
2560,1.655554855690403,0.0007074126032244972
2561,1.5342275749170045,0.013899102418386891
2562,1.0953533102847464,0.013356942538628127
2563,1.9890107989931038,2.53253173758934e-06
2564,1.9842772995478646,7.558848061776673e-06
2565,1.9999040055882298,2.835106405595047e-10
2566,1.543870695166829,0.004036115582027098
2567,1.3381982985562157,0.012050555063397292
2568,1.8976334713581098,0.0001014592144247694
2569,2.000506723132115,4.0577502717265494e-09
2570,1.9683630861668395,3.014788990931294e-05
2571,1.0895142856140319,0.0025356583202793092
2572,1.326982486536888,0.013498740206855353
2573,2.00008008794807,8.665575880021455e-11
2574,1.0181241570129882,0.0034235359462426846
2575,2.0082546187274275,1.5141213167072664e-06
2576,1.9954753243605845,1.2007088338927973e-05
2577,1.9896433862585499,3.29699019894976e-06
2578,2.000811405654031,1.1844057050001667e-08
2579,2.000000086635302,1.2484861797533926e-11
2580,2.0032859827938454,5.43455404927784e-08
2581,2.007267054012573,1.2784037409385338e-06
2582,2.0790041975806286,5.2709896087782995e-05
2583,2.000000119727666,1.097769153579412e-12
2584,2.001565749366805,5.971012290065162e-08
2585,1.8762623756241066,8.713109598639787e-05
2586,1.8328916607556947,0.0008734769311999347
2587,1.5576236322344177,0.005016122837397113
2588,2.002240761717614,3.9016573533290025e-07
2589,1.843632023980351,0.0007013383666916471
2590,1.6830935345884837,0.006320046357422961
2591,2.010314976632967,2.757833973969559e-06
2592,1.0060027334213044,0.00082445534260844
2593,1.8846788238410013,0.003614374076079714
2594,1.042667072741419,0.005618996572468425
2595,1.0328292880105818,0.0042879628376387875
2596,1.9787026232224632,9.825937512632934e-07
2597,2.002252018115297,1.3256955696339387e-07
2598,1.0039009511333714,0.0008247550818688204
2599,1.6737034171180225,0.010863641667129472
2600,1.6967698807566214,0.003792929025965026
2601,1.9999918265190222,2.0597972815701605e-12
2602,1.065777136613273,0.007067112154850712
2603,2.0012315670935306,4.231699028687881e-08
2604,1.8315257385852353,0.004083472838162329
2605,1.255007859826722,0.0064952014648295975
2606,1.021500231508005,0.002867514479706458
2607,2.000822653515454,1.702753590617484e-08
2608,2.003146356317221,2.1532989032331772e-07
2609,2.0000094420910437,2.537029848780673e-12
2610,1.1474851651436266,0.006268690510172634
2611,1.0155218517187778,0.0020774545379077603
2612,1.9985013169888464,5.455431124754983e-08
2613,2.0000080379527443,1.5066364105501106e-12
2614,1.7100094703375166,0.0006589450680236364
2615,1.9576879146813826,0.003098527731916585
2616,1.8731315961100001,0.0007213136418035184
2617,2.00012656613878,4.76568123117859e-10
2618,1.5638711517069714,0.0010357773900217025
2619,2.000000165654935,3.835022603750746e-13
2620,1.068264645764126,0.0071956378080117725
2621,1.1755004820324908,0.0008245010062624612
2622,1.3029042440056042,0.017192916381227958
2623,2.000052668553234,8.024007139574092e-11
2624,1.8038171806529408,0.003000559089204639
2625,2.0024829621181235,1.4923280474877286e-07
2626,1.7064616961404862,0.002970551136348998
2627,1.0092646803910972,0.0010915358394648807
2628,2.0000700517728025,1.33229144421511e-10
2629,1.0436309842376734,0.0058246237489474875
2630,1.0622487694651839,0.008133795572556616
2631,2.0656730589332075,0.00027949283555222496
2632,1.9969840896994737,2.7966972768070557e-07
2633,1.045640364071264,0.00625977064604496
2634,2.000007101885175,5.4141399710814776e-12
2635,1.6078195582179886,0.005775594038638029
2636,1.0152896981839994,0.00221215710523234
2637,1.9999934019916825,-2.2092294065581067e-12
2638,1.8602204002727643,6.778170446096089e-05
2639,2.083965892899896,7.264960223367141e-05
2640,1.7772763466836041,0.000512205371350637
2641,1.9158890551187082,0.00023280739896675096
2642,1.2844558198226872,0.014730852108548218
2643,1.8492075090798092,0.00026172690993334736
2644,1.0629955828156787,0.006725437600270179
2645,2.0276780975790176,9.067034118940722e-06
2646,1.9987020320112845,2.6383800000247683e-08
2647,2.0018275592245947,1.397628126953604e-07
2648,1.3308749380039047,0.010288666041517285
2649,1.48313491116257,0.016210461386118744
2650,1.0617108012229528,0.00945497834514213
2651,1.0111637806996558,0.0009184427045918189
2652,2.0079571084401366,5.114005739904391e-05
2653,1.6491010049986035,0.004394769465736858
