,shapes
0,1.9983111428711289
1,1.9981684299614435
2,1.997995059837072
3,1.997910449704621
4,1.9977610312879333
5,1.9976885956400456
6,1.9975612662926496
7,1.9974689523969535
8,1.9974729545747378
9,1.997434446177776
10,1.9974334960187308
11,1.9975448716070254
12,1.9976601758575372
13,1.997823281006406
14,1.9980277995828377
15,1.9982676101136085
16,1.9984673635936558
17,1.9986907329038186
18,1.999052824345946
19,1.9992259835163486
20,1.9994872242009438
21,1.9996982124656546
22,1.9997813453592226
23,1.9998406618974869
24,1.999872889175302
25,1.9997998270304889
26,1.999682110403609
27,1.9995416316961403
28,1.9993490166302659
29,1.9991304734068558
30,1.9988727885987412
31,1.998613823928518
32,1.9983762204662978
33,1.9981464865939818
34,1.9979312811969896
35,1.9977574125132638
36,1.9976190195585957
37,1.997522637920239
38,1.997467943263065
39,1.9974515256837724
40,1.9974761339862126
41,1.9975284740979553
42,1.9976100909156007
43,1.997713118402614
44,1.9978325572519902
45,1.9979635267472673
46,1.998100759113173
47,1.998240536851866
48,1.9983799445061534
49,1.998515876163074
50,1.9986472435525604
51,1.9987720482124105
52,1.9988893878020868
53,1.9989987708458845
54,1.9991000017486926
55,1.9991930016003354
56,1.9992780546691378
57,1.9993554154750957
58,1.9994255009316855
59,1.9994887351446013
60,1.9995456104929383
61,1.9995966586362257
62,1.9996423413754927
63,1.9996831486033309
64,1.9997195207877512
65,1.9997519029093593
66,1.999780679105504
67,1.9998062287055982
68,1.9998288842703613
69,1.9998489565541784
70,1.9998667244400699
71,1.999882442058862
72,1.999896336170931
73,1.9999086114961555
74,1.99991945261763
75,1.9999290210891998
76,1.9999374649902206
77,1.9999449123860384
78,1.9999514796802391
79,1.999957269411849
80,1.9999623729028864
81,1.9999668690689019
82,1.9999708304806547
83,1.999974320752771
84,1.9999773950140947
85,1.9999801019463934
86,1.9999824858085964
87,1.9999845857778475
88,1.9999864338317217
89,1.9999880612219452
90,1.9999894930393918
91,1.999990754020227
92,1.9999918634972633
93,1.9999928411061825
94,1.9999937008068587
95,1.9999944577422417
96,1.9999951233261675
97,1.9999957096086844
98,1.9999962256363357
99,1.999996679970425
100,1.9741824843034417
101,1.9744307528803569
102,1.9765563574012184
103,1.9777516204419692
104,1.9794739496265605
105,1.9807467505981489
106,1.9825913069818324
107,1.9835713678391609
108,1.9847927105791834
109,1.9860492619268584
110,1.987140759886645
111,1.988166460563425
112,1.9893978349652222
113,1.9902547289109496
114,1.9911945488437797
115,1.992104168436313
116,1.9928933584401711
117,1.99361282801532
118,1.9942693259273796
119,1.9948774392616637
120,1.9954330118944061
121,1.9959316785667462
122,1.9963765953256964
123,1.9967837513062765
124,1.9971457979792033
125,1.9974679484266824
126,1.9977566450038418
127,1.9980166551403684
128,1.9982419267924685
129,1.9984478861568329
130,1.9986272546988235
131,1.9987880776839109
132,1.9989296941653703
133,1.9990557247111582
134,1.999166420292331
135,1.9992652158565765
136,1.9993525964718253
137,1.9994291993041686
138,1.9994970672912473
139,1.9995568539762834
140,1.9996094409794762
141,1.9996560399180223
142,1.999697116580643
143,1.9997331831123142
144,1.9997650619250336
145,1.9997931571639325
146,1.9998178916155673
147,1.9998396973096317
148,1.9998588986320598
149,1.999875780804162
150,1.9998906504810638
151,1.999903775894398
152,1.9999152924948884
153,1.9999254432385394
154,1.9999343882424343
155,1.9999422616442826
156,1.9999491859646343
157,1.9999552847245936
158,1.9999606437822288
159,1.9999653708691787
160,1.9999695232783927
161,1.9999731786137462
162,1.9999763988575117
163,1.9999792307580777
164,1.999981724976659
165,1.9999839181489858
166,1.9999858503007955
167,1.9999875469845196
168,1.9999890434095016
169,1.9999903598529252
170,1.9999915158383184
171,1.9999925348235998
172,1.9999934317251193
173,1.9999942198388612
174,1.999994913764068
175,1.9999955241929568
176,1.9999960627509235
177,1.99999653452813
178,1.9999969502704629
179,1.999997315916545
180,1.9999976394660703
181,1.9999979224212396
182,1.9999981711259893
183,1.9999983910061632
184,1.9999985863724052
185,1.9999987541566648
186,1.9999989034813257
187,1.9999990357534632
188,1.9999991529004773
189,1.9999992536137308
190,1.999999341769316
191,1.999999422582997
192,1.9999994916446129
193,1.9999995532522843
194,1.9999996070154393
195,1.9999996540195237
196,1.9999996958403001
197,1.9999997305394792
198,1.9999997636959144
199,1.999999792569078
200,1.9635822423911107
201,1.9656235199780123
202,1.9659759349505663
203,1.9678579235774258
204,1.9698300174511016
205,1.9717585130453883
206,1.97377980538563
207,1.9758202749164082
208,1.9772675094249237
209,1.9792368754263818
210,1.9807911872831139
211,1.9826280218760695
212,1.984083643760782
213,1.9855987825809864
214,1.9869978630458018
215,1.988226795902523
216,1.9893710677822294
217,1.9904779138819306
218,1.9914765538553818
219,1.99239179929299
220,1.9931899186429207
221,1.9939326017971921
222,1.9945936777387667
223,1.9951970955799294
224,1.9957341918147473
225,1.9962150943402301
226,1.9966417555330562
227,1.9970315370509975
228,1.997373682326677
229,1.9976773139358626
230,1.9979454991957744
231,1.9981865757535944
232,1.9983990223534664
233,1.9985872227594106
234,1.9987531215880872
235,1.9988997421568595
236,1.9990298767996006
237,1.999145192021336
238,1.999246781510069
239,1.999336262502128
240,1.9994151850504451
241,1.9994847679124936
242,1.9995461377832136
243,1.999600493624316
244,1.9996481448196306
245,1.9996901780977443
246,1.999727209765954
247,1.9997598934374587
248,1.9997885940318327
249,1.9998139244044728
250,1.999836196282886
251,1.9998557861365964
252,1.9998730967814293
253,1.9998883198283548
254,1.9999017011545448
255,1.9999135038493345
256,1.99992386200408
257,1.9999329890314137
258,1.9999410362927896
259,1.9999481105263874
260,1.9999543356476952
261,1.9999598164037256
262,1.9999646384580596
263,1.99996888309914
264,1.9999726173009225
265,1.9999759038512124
266,1.999978795562367
267,1.9999813419371228
268,1.9999835817402019
269,1.9999855522078953
270,1.9999872874371338
271,1.999988813169748
272,1.9999901566818579
273,1.9999913378021257
274,1.9999923799638957
275,1.9999932935219107
276,1.9999940971781915
277,1.9999948055317267
278,1.999995429425088
279,1.9999959784566497
280,1.9999964627264415
281,1.9999968884521533
282,1.9999972606152423
283,1.9999975902813165
284,1.9999978781546939
285,1.9999981350325264
286,1.9999983582780654
287,1.9999985544887127
288,1.9999987285685308
289,1.9999988814167051
290,1.999999018204075
291,1.9999991338429048
292,1.999999237119404
293,1.9999993279817077
294,1.9999994091207172
295,1.9999994805267323
296,1.999999541571085
297,1.9999995979933105
298,1.9999996476828266
299,1.9999996918390144
300,1.9981270479008078
301,1.9980039920445194
302,1.9981203365557172
303,1.998248139287724
304,1.9981644204845341
305,1.9984770833225802
306,1.998574472546106
307,1.9989428861044418
308,1.9989966712911107
309,1.9993186779674348
310,1.999770924721417
311,2.0001796981016033
312,2.0003967956352495
313,2.00076389928562
314,2.000841596413213
315,2.001055257551401
316,2.0012275192834825
317,2.0011949263993056
318,2.001217932696881
319,2.0012022072835354
320,2.00105478581754
321,2.0009091364624956
322,2.000674377718805
323,2.0004269370937906
324,2.000064243462078
325,1.9997269570045362
326,1.999396265610295
327,1.9991234428931397
328,1.9988150843880028
329,1.9985879474331387
330,1.9983759251838464
331,1.9982179799530642
332,1.9980995521758564
333,1.998032442162327
334,1.9979976412745433
335,1.9980056198560774
336,1.9980407087511944
337,1.998102490596296
338,1.9981831681125983
339,1.9982778921558682
340,1.9983825372162713
341,1.998493227978002
342,1.9986060733879742
343,1.9987182355495694
344,1.9988274615537724
345,1.998932450704426
346,1.9990318950608903
347,1.999125482657253
348,1.9992124735522223
349,1.9992926853297885
350,1.9993663815631155
351,1.9994335755971788
352,1.999494635548998
353,1.9995498132702942
354,1.9995996272316834
355,1.9996443608655465
356,1.9996844509316511
357,1.9997203074581786
358,1.9997523034849705
359,1.9997808042935863
360,1.9998061680674126
361,1.9998286927997568
362,1.9998486852171473
363,1.9998664043148606
364,1.9998820910791577
365,1.9998959770282598
366,1.9999082572538924
367,1.9999191095077267
368,1.9999286952390143
369,1.9999371583842271
370,1.9999446281640247
371,1.999951218442867
372,1.9999570296763352
373,1.9999621540899724
374,1.9999666715186017
375,1.999970651673763
376,1.9999741598462522
377,1.9999772494403463
378,1.9999799714796647
379,1.9999823695893397
380,1.999984480224684
381,1.9999863398168143
382,1.9999879767233664
383,1.999989417637982
384,1.999990686477215
385,1.9999918035059587
386,1.9999927865039833
387,1.9999936521271757
388,1.9999944136837053
389,1.9999950841860024
390,1.999995674170847
391,1.9999961940226156
392,1.9999966505658993
393,1.999997052627948
394,1.999997406368452
395,1.9999977183590523
396,1.9999979925299862
397,1.9999982334586357
398,1.999998445921495
399,1.9999986324927286
400,1.9996578619249183
401,1.9996196243766924
402,1.999572701240081
403,1.999526036567927
404,1.999476212752566
405,1.9994214233215344
406,1.9993651120782578
407,1.9993068884975793
408,1.9992482855875107
409,1.9991869221115621
410,1.9991351244759694
411,1.9990870806082388
412,1.9990361540176702
413,1.9990195705639306
414,1.9989965511396544
415,1.9989949413598866
416,1.9990407056976935
417,1.9991129695971435
418,1.9992202614791457
419,1.9993627357756851
420,1.9995842142801215
421,1.9998420989105412
422,2.0001435496740707
423,2.000520249166742
424,2.0009261813550485
425,2.001382092351896
426,2.001885146704955
427,2.002394924076238
428,2.002869067228195
429,2.0033801910534943
430,2.0038336449765812
431,2.0042417096523035
432,2.004596680241957
433,2.004811233597707
434,2.0049654032891393
435,2.0049987362813066
436,2.0049353008194752
437,2.0047522172784813
438,2.004470001511649
439,2.0041090991336463
440,2.0036855421725934
441,2.0032105447525903
442,2.0027130874175154
443,2.002206511112899
444,2.0017023348768075
445,2.001227815203277
446,2.0007833756570412
447,2.0003862919493067
448,2.0000367040336102
449,1.9997430889233394
450,1.9995029117018621
451,1.9993157722652497
452,1.999177412495889
453,1.999082177901231
454,1.9990250630481077
455,1.9989993484780997
456,1.9989991609359616
457,1.9990191131335575
458,1.999054030314586
459,1.9990997111339384
460,1.9991525504284375
461,1.9992095404195105
462,1.999268505977841
463,1.999327526733773
464,1.9993852985578888
465,1.9994408607293717
466,1.9994935404473595
467,1.9995429424824653
468,1.9995888244342195
469,1.9996311309270387
470,1.9996698774421813
471,1.9997051776761896
472,1.9997371848803518
473,1.9997660957858598
474,1.9997921185998504
475,1.9998154758069273
476,1.9998363868924622
477,1.9998550660082606
478,1.9998717214396309
479,1.999886546477714
480,1.9998997243626233
481,1.999911423142779
482,1.9999217974174515
483,1.9999309883651057
484,1.9999391244695806
485,1.9999463215927136
486,1.9999526830656278
487,1.9999583040592002
488,1.9999632679221795
489,1.9999676478845385
490,1.9999715136495406
491,1.999974923529377
492,1.9999779302781064
493,1.999980580774582
494,1.9999829168362069
495,1.999984975199732
496,1.999986789463839
497,1.9999883866145174
498,1.9999897939927496
499,1.9999910335942788
500,2.000445793428455
501,2.000595441835054
502,2.000763906919838
503,2.0009080238762476
504,2.001221644809621
505,2.0015080895838113
506,2.0018878711858976
507,2.0023593109621842
508,2.002812381894616
509,2.003435370089357
510,2.004097241846453
511,2.00486910800554
512,2.005637534243134
513,2.006574802899122
514,2.007530904682964
515,2.008526054877013
516,2.0094595153015584
517,2.0104606524298925
518,2.011398859635177
519,2.0121642688503094
520,2.0129503269342504
521,2.0135396495530147
522,2.014035555817425
523,2.0142904625774274
524,2.0143032795009552
525,2.014174301765437
526,2.0138486792092944
527,2.0133788531291086
528,2.012689250417621
529,2.0119130537246233
530,2.011036386484075
531,2.0101008820045148
532,2.0091180485408575
533,2.008131837250612
534,2.007164270470357
535,2.006232292034991
536,2.00536115209115
537,2.004558082163725
538,2.0038362748123486
539,2.0031942701498986
540,2.0026337740686424
541,2.0021503846648843
542,2.0017424748907833
543,2.0013979751882864
544,2.0011127471229626
545,2.000878099007141
546,2.000687174499708
547,2.000533477325314
548,2.0004103820273835
549,2.0003127921247765
550,2.000235625368385
551,2.0001754333296122
552,2.0001285578894703
553,2.0000926187262693
554,2.000065099159316
555,2.0000442233909927
556,2.000028574945782
557,2.000016983231608
558,2.0000085161561163
559,2.000002436878478
560,1.9999981751843996
561,1.999995289298605
562,1.9999934253517566
563,1.9999923127448775
564,1.9999917564566412
565,1.9999915902142358
566,1.9999916999942142
567,1.9999919972370455
568,1.99999241251382
569,1.999992900468825
570,1.9999934242937265
571,1.9999939590011346
572,1.9999944867235797
573,1.99999499543466
574,1.9999954776756474
575,1.999995928814767
576,1.9999963466651076
577,1.9999967305427022
578,1.9999970808899004
579,1.9999973988140851
580,1.999997686201623
581,1.9999979449591416
582,1.9999981771764825
583,1.9999983849880698
584,1.9999985706018848
585,1.999998735996547
586,1.9999988832302293
587,1.9999990140333332
588,1.999999130109914
589,1.9999992330343959
590,1.9999993241387315
591,1.9999994048015708
592,1.9999994761237203
593,1.9999995391547145
594,1.9999995948184641
595,1.9999996439764445
596,1.9999996873194588
597,1.9999997255533457
598,1.9999997593521113
599,1.9999997892184076
600,2.002018915501084
601,2.002525358684285
602,2.0031195595255635
603,2.0039135703143165
604,2.00439423916766
605,2.005269838412629
606,2.0061916213290663
607,2.0070459341334104
608,2.0078464867444934
609,2.0088924039445186
610,2.0100190992019744
611,2.0108732312869817
612,2.0119496239607164
613,2.0126583350970746
614,2.0130170254136104
615,2.0135227760996477
616,2.0139360013721883
617,2.014081850496765
618,2.0141723602393298
619,2.0138653126200117
620,2.0135215147654555
621,2.012853405068672
622,2.012148327852643
623,2.011299947249689
624,2.0103623924589296
625,2.0094134468605933
626,2.008437678702669
627,2.0074768437734094
628,2.0065152708201035
629,2.0056460693691713
630,2.0048304468783877
631,2.0040672694391666
632,2.003395951766265
633,2.002806910879512
634,2.0022986254661848
635,2.001866933880263
636,2.0015004468969413
637,2.001193701590487
638,2.0009435567669924
639,2.0007385297979647
640,2.000571255449621
641,2.000439089331409
642,2.000334119692792
643,2.0002504193353645
644,2.0001852143462187
645,2.0001346374083027
646,2.000095799153435
647,2.000066242590904
648,2.0000439012856446
649,2.000027243466856
650,2.0000148987109827
651,2.000006029739387
652,1.999999689494323
653,1.9999953353337865
654,1.9999924512594622
655,1.9999906554957065
656,1.999989666020894
657,1.9999892613824097
658,1.9999892627438378
659,1.9999895518871353
660,1.9999900255554266
661,1.999990615345853
662,1.9999912715553385
663,1.9999919522615974
664,1.9999926339492944
665,1.999993297328844
666,1.9999939306630068
667,1.9999945260511238
668,1.9999950799398307
669,1.9999955908939635
670,1.9999960581865481
671,1.999996483487597
672,1.9999968684924991
673,1.9999972157084136
674,1.9999975278381936
675,1.9999978074554623
676,1.9999980573519331
677,1.999998280373458
678,1.9999984789424583
679,1.9999986555301854
680,1.9999988123246777
681,1.9999989514319283
682,1.999999074548936
683,1.9999991836220372
684,1.9999992800941992
685,1.9999993653820858
686,1.9999994407316388
687,1.999999507256192
688,1.9999995660249976
689,1.9999996178195876
690,1.9999996635682216
691,1.999999703889384
692,1.9999997394072146
693,1.9999997707114856
694,1.9999997983466355
695,1.9999998226404871
696,1.9999998440245674
697,1.9999998629079143
698,1.9999998794951994
699,1.9999998940929224
700,1.9666697613540778
701,1.9677118649548793
702,1.9681837911010929
703,1.9702557168814652
704,1.9718956390678943
705,1.9740598041309692
706,1.975574487835512
707,1.9771470619236626
708,1.9789340900820467
709,1.980886909646501
710,1.9825286705448315
711,1.9840291432910067
712,1.9854397508743584
713,1.9868086359368136
714,1.988205293457139
715,1.9892712007350806
716,1.9903849713827597
717,1.9913912269615475
718,1.9922703164043638
719,1.9931011353823174
720,1.9938561148613734
721,1.9945245010492219
722,1.9951299445927193
723,1.9956666228077782
724,1.9961612232729473
725,1.9965992763094718
726,1.9969830138444182
727,1.9973298995778304
728,1.9976403735021835
729,1.9979119068661069
730,1.998156075592147
731,1.9983714835673316
732,1.9985630996751274
733,1.9987322756320243
734,1.9988820674050298
735,1.999014363952517
736,1.999130378037808
737,1.999233687860554
738,1.9993248799536822
739,1.9994050698415218
740,1.9994759955243673
741,1.9995384014998345
742,1.9995936668213925
743,1.9996419002092716
744,1.99968480190503
745,1.9997224577972048
746,1.999755724152832
747,1.9997849178759746
748,1.9998106900385637
749,1.9998333656564455
750,1.9998533073524787
751,1.9998708848001285
752,1.9998863648527536
753,1.999899981657951
754,1.9999119787967148
755,1.999922535880472
756,1.9999318305508647
757,1.9999400022029867
758,1.999947201501087
759,1.9999535347899937
760,1.999959113283647
761,1.999964020345427
762,1.9999683399653365
763,1.9999721400080344
764,1.9999754813680841
765,1.9999784257720572
766,1.9999810154544342
767,1.9999832917417766
768,1.9999853004303823
769,1.999987065271662
770,1.9999886187288787
771,1.9999899871180917
772,1.9999911861265773
773,1.9999922444874785
774,1.9999931754415756
775,1.9999939961879518
776,1.9999947170100507
777,1.9999953531442094
778,1.9999959096320779
779,1.9999964004868744
780,1.9999968330500864
781,1.9999972139881637
782,1.9999975468071602
783,1.999997842124851
784,1.9999981012029364
785,1.9999983291042565
786,1.999998530618189
787,1.9999987070544971
788,1.999998860962792
789,1.9999989978842112
790,1.9999991177442447
791,1.9999992246579317
792,1.999999316516451
793,1.9999994003675012
794,1.9999994703507327
795,1.9999995355258244
796,1.9999995918738191
797,1.9999996412932224
798,1.9999996831951
799,1.999999720557634
800,2.0002207400147647
801,2.000285286393228
802,2.0003579125795503
803,2.0004738763959256
804,2.0005780794802885
805,2.0007437231967535
806,2.000907088535631
807,2.0011349785020793
808,2.001414361636974
809,2.001744788621661
810,2.0021402938553914
811,2.00257909321574
812,2.0031790652485424
813,2.003768782323911
814,2.0044828213954777
815,2.0052772105459202
816,2.006136005676287
817,2.007090380370392
818,2.008019956817156
819,2.0090887419996157
820,2.010224790442012
821,2.0111474673930734
822,2.0120919020308943
823,2.0129834191966176
824,2.013698118608
825,2.0144670139997434
826,2.0148616774729144
827,2.0151801357940955
828,2.0152044883371856
829,2.0151325737113557
830,2.014753756769453
831,2.014242068330889
832,2.013537736177486
833,2.0127478180300775
834,2.011837515769799
835,2.0108433946625235
836,2.009822333863375
837,2.00879137029367
838,2.0077745479728852
839,2.0067969380393427
840,2.0058806512297456
841,2.0050297597581745
842,2.004262344490294
843,2.003578807839613
844,2.0029787985952994
845,2.0024592581380123
846,2.0020166392090673
847,2.001642143127193
848,2.0013289309672504
849,2.001069583896132
850,2.000856546446633
851,2.0006830913851648
852,2.0005422538970428
853,2.000428964146562
854,2.000338110222754
855,2.0002656601553634
856,2.000208120116448
857,2.0001625693926224
858,2.000126650885191
859,2.0000984042971828
860,2.0000762650457147
861,2.0000589441438246
862,2.000045432389545
863,2.000034925595186
864,2.0000267598792867
865,2.000020439882413
866,2.000015551932579
867,2.000011786137954
868,2.000008888271652
869,2.0000066661617457
870,2.0000049660644894
871,2.0000036700534625
872,2.000002685834391
873,2.0000019414235775
874,2.00000138090022
875,2.0000009614630945
876,2.000000649774786
877,2.0000004199914994
878,2.000000252583339
879,2.0000001321074885
880,2.000000047032846
881,1.9999999883862538
882,1.9999999493283314
883,1.9999999247365687
884,1.9999999106817499
885,1.9999999041750687
886,1.9999999029945872
887,1.9999999054871782
888,1.9999999104292727
889,1.9999999168975064
890,1.999999924191547
891,1.999999931924966
892,1.9999999397065455
893,1.9999999473080026
894,1.9999999545824678
895,1.9999999614629655
896,1.9999999678499063
897,1.9999999737492726
898,1.9999999791599132
899,1.9999999840936236
900,2.01050941109981
901,2.0094870857601235
902,2.0093928791545483
903,2.0106698062222432
904,2.0095805781097122
905,2.0095824872256287
906,2.0087369244095012
907,2.0084225465294847
908,2.007058946635909
909,2.0069856611610963
910,2.005456473451532
911,2.005019002586289
912,2.004323228289268
913,2.0034877278487158
914,2.002958285444042
915,2.0023903739832187
916,2.00184234046174
917,2.0013948433773514
918,2.001063840512783
919,2.0007545893666707
920,2.0004909312278496
921,2.000291415855934
922,2.0001252391642375
923,2.00000621241557
924,1.9999257999713111
925,1.9998655027217955
926,1.99981927281746
927,1.9997930165717244
928,1.9997777866676896
929,1.999773245400824
930,1.9997755354435287
931,1.9997816656941687
932,1.9997922426013663
933,1.9998042785344368
934,1.999817791673349
935,1.9998318404731055
936,1.9998458064827922
937,1.9998594472840785
938,1.9998723626348214
939,1.9998847267848092
940,1.9998962402800613
941,1.9999068505563389
942,1.9999166234680468
943,1.999925545699131
944,1.9999335873870256
945,1.9999409071390104
946,1.9999474773294736
947,1.9999533675602172
948,1.9999586502283877
949,1.999963358714798
950,1.9999675707848732
951,1.999971325707175
952,1.999974649074436
953,1.999977604449514
954,1.9999802240576856
955,1.999982543533024
956,1.9999846001590507
957,1.9999864156084919
958,1.9999880217770334
959,1.999989440786205
960,1.9999906937703054
961,1.9999917997313295
962,1.9999927755934115
963,1.9999936358801986
964,1.999994394609779
965,1.9999950635189587
966,1.999995653143112
967,1.999996172647165
968,1.999996630113899
969,1.9999970331950878
970,1.99999738839092
971,1.9999977011039538
972,1.999997976414346
973,1.9999982187171963
974,1.9999984323570885
975,1.9999986204028595
976,1.9999987857503456
977,1.999998931295975
978,1.9999990592586177
979,1.9999991723399662
980,1.9999992714708
981,1.999999359074536
982,1.9999994359608004
983,1.9999995034981963
984,1.999999563159621
985,1.9999996156143334
986,1.9999996618506484
987,1.9999997023216498
988,1.9999997382342651
989,1.9999997696818668
990,1.9999997973061736
991,1.9999998215636385
992,1.9999998429471504
993,1.9999998619745525
994,1.9999998784246389
995,1.9999998932393406
996,1.999999906070285
997,1.9999999172820448
998,1.9999999271901296
999,1.9999999366433887
1000,2.000057114477478
1001,2.000075874922238
1002,2.0000925902311275
1003,2.0001198929725983
1004,2.000153371514592
1005,2.0001938732512974
1006,2.000248404714018
1007,2.000313168177874
1008,2.000396326577254
1009,2.0004994442471027
1010,2.0006277997254083
1011,2.000783217399764
1012,2.0009829469737404
1013,2.001221555455252
1014,2.0015077716836567
1015,2.0018561602741545
1016,2.002263117611538
1017,2.0027458592430536
1018,2.003299574914794
1019,2.003962372504025
1020,2.004700234850316
1021,2.005500172756417
1022,2.0063990565197867
1023,2.007357266318959
1024,2.0083702539041943
1025,2.0093814692089564
1026,2.010410575971599
1027,2.0114586063353386
1028,2.0123963354706222
1029,2.013275356625823
1030,2.014030004783475
1031,2.0146426733070957
1032,2.0150690148626835
1033,2.0153145908359433
1034,2.0153403357278035
1035,2.0151569913094396
1036,2.0147787873076775
1037,2.014233196745135
1038,2.013514167218828
1039,2.0126834553454067
1040,2.011734099276256
1041,2.0107363190427576
1042,2.0097026284448427
1043,2.008662466127165
1044,2.0076451929395183
1045,2.0066741004344757
1046,2.0057625454903314
1047,2.004924241387267
1048,2.00416780803431
1049,2.003496441737757
1050,2.002908560833623
1051,2.0024006049872556
1052,2.001967665536796
1053,2.0016031987381306
1054,2.00129861072844
1055,2.001046512457516
1056,2.0008395531039196
1057,2.000670608754128
1058,2.0005337780121346
1059,2.0004235175390033
1060,2.0003350736583423
1061,2.0002643952632453
1062,2.0002082077178414
1063,2.000163606916993
1064,2.000128350975751
1065,2.0001005327893644
1066,2.000078644153211
1067,2.000061444064236
1068,2.000047962112675
1069,2.0000374080514307
1070,2.0000291566771287
1071,2.0000227125077608
1072,2.0000176867417627
1073,2.0000137692828956
1074,2.000010719038948
1075,2.0000083459849116
1076,2.0000065007094987
1077,2.0000050667034355
1078,2.0000039529097102
1079,2.00000308820804
1080,2.0000024173063844
1081,2.0000018968281106
1082,2.000001493259944
1083,2.0000011804746305
1084,2.000000938093333
1085,2.0000007502677897
1086,2.0000006048848276
1087,2.000000492276009
1088,2.000000405138169
1089,2.0000003377516617
1090,2.0000002856118284
1091,2.0000002453184935
1092,2.0000002141546966
1093,2.0000001900958027
1094,2.000000171506994
1095,2.0000001571622006
1096,2.0000001460898975
1097,2.0000001375525414
1098,2.000000130975729
1099,2.000000125895433
1100,2.0000868408286956
1101,2.000113612774295
1102,2.000155339705983
1103,2.0002023901102177
1104,2.0002722299164764
1105,2.000356978435895
1106,2.000443743087695
1107,2.0005793883553147
1108,2.000737096810474
1109,2.000930336545831
1110,2.0011729371124947
1111,2.0014614637585684
1112,2.001809194547213
1113,2.0022345302290674
1114,2.0027259435234046
1115,2.0033025460989387
1116,2.0039476044459326
1117,2.0046632083146987
1118,2.0054836195360464
1119,2.0063447945914192
1120,2.007312512175804
1121,2.0082810798085777
1122,2.009281919490379
1123,2.010326451839447
1124,2.011239433251533
1125,2.012144794230266
1126,2.012974736036644
1127,2.013651369795294
1128,2.014191736051462
1129,2.0145331603572703
1130,2.014669747497022
1131,2.014631967379411
1132,2.0143708144023638
1133,2.0139460268647227
1134,2.013346909386908
1135,2.0125992566947257
1136,2.0117594260018468
1137,2.0108147462600194
1138,2.0098258660818646
1139,2.008823816961915
1140,2.0078280854058512
1141,2.0068605503139954
1142,2.0059433761142804
1143,2.005092781908389
1144,2.004316818159551
1145,2.0036230607505487
1146,2.0030114669028856
1147,2.0024796125550286
1148,2.002025602152104
1149,2.001641626390478
1150,2.0013199841060834
1151,2.001053807772556
1152,2.000835980750112
1153,2.0006585734621485
1154,2.000515268049647
1155,2.0004005878499593
1156,2.000309363752851
1157,2.0002372253778264
1158,2.0001804187163055
1159,2.0001360682893563
1160,2.000101606992253
1161,2.0000749751975904
1162,2.0000545213393712
1163,2.000038929673774
1164,2.000027114390715
1165,2.000018242877366
1166,2.000011639797538
1167,2.000006784989127
1168,2.000003265819912
1169,2.000000760853644
1170,1.9999990195985287
1171,1.9999978518659551
1172,1.999997108423228
1173,1.9999966781546077
1174,1.9999964729394308
1175,1.999996427800749
1176,1.9999964936455619
1177,1.999996633798874
1178,1.999996821229907
1179,1.9999970358676482
1180,1.9999972631895138
1181,1.999997493356365
1182,1.9999977192538734
1183,1.9999979361343947
1184,1.9999981409661993
1185,1.9999983321763353
1186,1.9999985088284173
1187,1.9999986708456325
1188,1.999998818471693
1189,1.9999989523209731
1190,1.9999990731832096
1191,1.9999991818677647
1192,1.9999992792886787
1193,1.9999993664983908
1194,1.999999444331901
1195,1.9999995136505564
1196,1.999999575344865
1197,1.9999996301036542
1198,1.9999996786814063
1199,1.9999997217414407
1200,1.997125787541954
1201,1.996779770874405
1202,1.996420872109202
1203,1.995983593836104
1204,1.9955094307923409
1205,1.9950038090714544
1206,1.994474268628232
1207,1.99385803820156
1208,1.9932224732128547
1209,1.9925388814682319
1210,1.9917962376372904
1211,1.9910320338703875
1212,1.9902363762988464
1213,1.9894813401760194
1214,1.988598074613164
1215,1.9876914580768366
1216,1.986835239480226
1217,1.9859890406899479
1218,1.9851079381859802
1219,1.984286698189204
1220,1.983508166110745
1221,1.9827763288682563
1222,1.982044721854625
1223,1.9814214012016247
1224,1.9809074299928162
1225,1.9805767539500407
1226,1.9802093263705471
1227,1.9800198554827217
1228,1.9799362748180285
1229,1.9799982703161771
1230,1.980153792781908
1231,1.9803997306277232
1232,1.9807825166903796
1233,1.9812593280013848
1234,1.9818194147151342
1235,1.98248570055768
1236,1.9832032199272693
1237,1.9839829149782346
1238,1.9848062449796573
1239,1.985644456365721
1240,1.9865086608322535
1241,1.9873844364978757
1242,1.9882445664499333
1243,1.9890985983021199
1244,1.9899305401015381
1245,1.990738870276867
1246,1.9915131786155638
1247,1.9922513826839245
1248,1.9929494314668927
1249,1.9936055159579325
1250,1.99421794881552
1251,1.994786486302101
1252,1.9953104847430612
1253,1.9957917771301106
1254,1.9962318396236605
1255,1.9966321178036535
1256,1.9969951823078143
1257,1.9973231505270876
1258,1.9976186128551023
1259,1.9978842072541598
1260,1.9981222183069824
1261,1.9983350866998684
1262,1.99852512881789
1263,1.9986945206204931
1264,1.9988452374169552
1265,1.9989791822240213
1266,1.999098075691371
1267,1.999203516134888
1268,1.9992969242582677
1269,1.9993796154030206
1270,1.9994527650973697
1271,1.9995174265356541
1272,1.9995745581944093
1273,1.9996250135845548
1274,1.9996695527905777
1275,1.9997088545918311
1276,1.9997435220753912
1277,1.9997740930533694
1278,1.9998010426619564
1279,1.999824798533754
1280,1.9998457320926302
1281,1.9998641768956364
1282,1.999880424655913
1283,1.9998947347179443
1284,1.9999073399092502
1285,1.9999184410580955
1286,1.99992821440874
1287,1.9999368184417485
1288,1.99994439424668
1289,1.9999510619181977
1290,1.999956934569024
1291,1.999962103134564
1292,1.999966649677607
1293,1.9999706548742564
1294,1.9999741788037066
1295,1.9999772797281368
1296,1.9999800091456272
1297,1.9999824113812765
1298,1.999984525125784
1299,1.9999863879049815
1300,1.9743926831732668
1301,1.9723870797430705
1302,1.9713509471712751
1303,1.9690774478198276
1304,1.96707611544614
1305,1.9659990244432939
1306,1.964875233357932
1307,1.963518414726077
1308,1.9623143907022713
1309,1.9614916599790184
1310,1.9609667242225104
1311,1.9607442712753642
1312,1.960822614640272
1313,1.9614002752027064
1314,1.9619444779831765
1315,1.9629191602553906
1316,1.9640882646559212
1317,1.96547351656322
1318,1.9668742329306583
1319,1.9685207293284142
1320,1.9703337115237594
1321,1.9721138889624528
1322,1.9739790575648266
1323,1.9758085550549274
1324,1.9775744940952913
1325,1.9793468691513467
1326,1.9810533566509196
1327,1.9826727497348728
1328,1.9842118394531816
1329,1.9856526096760156
1330,1.987018239588836
1331,1.9882806270419242
1332,1.9894460721560847
1333,1.9905167782289446
1334,1.9915008263421192
1335,1.9923945762285213
1336,1.9932091737763364
1337,1.9939462006423312
1338,1.9946092624230933
1339,1.995206832095339
1340,1.9957430726364536
1341,1.9962231619476862
1342,1.9966521900904521
1343,1.99703565172921
1344,1.9973765406214512
1345,1.9976800658470937
1346,1.9979494342609347
1347,1.9981887099878004
1348,1.998400507751696
1349,1.9985883054794484
1350,1.9987544316648487
1351,1.9989014554315316
1352,1.9990312578688496
1353,1.9991460409432562
1354,1.9992472947007347
1355,1.9993367765264614
1356,1.9994156549805542
1357,1.9994852598649426
1358,1.9995466389010497
1359,1.9996007342592752
1360,1.9996483956626452
1361,1.999690407730286
1362,1.9997274279387338
1363,1.999760033109704
1364,1.9997887506779761
1365,1.9998140440500904
1366,1.9998363177014367
1367,1.9998559281092938
1368,1.9998731908613276
1369,1.9998883907686902
1370,1.9999017711843274
1371,1.9999135499635112
1372,1.9999239193208092
1373,1.999933044165861
1374,1.9999410770967205
1375,1.9999481457073947
1376,1.9999543686442411
1377,1.9999598428616598
1378,1.9999646636648567
1379,1.9999689046436615
1380,1.9999726373238564
1381,1.9999759212171153
1382,1.9999788102811746
1383,1.9999813575014875
1384,1.9999835936332895
1385,1.999985563495645
1386,1.999987294895348
1387,1.9999888199438542
1388,1.9999901632774097
1389,1.9999913446755098
1390,1.9999923842265248
1391,1.9999932989104356
1392,1.9999941035843265
1393,1.9999948120711188
1394,1.9999954341900334
1395,1.9999959815503678
1396,1.999996463662921
1397,1.9999968882631352
1398,1.9999972629598808
1399,1.9999975920063273
1400,1.9936592550222347
1401,1.9934084867665178
1402,1.9931164172938445
1403,1.9934742617935668
1404,1.993239129057317
1405,1.9930521183795038
1406,1.9934109821023454
1407,1.9930386836824896
1408,1.9928975245471392
1409,1.9931539737192046
1410,1.9928785383288419
1411,1.9930180057524123
1412,1.9928660977479589
1413,1.9930219061676984
1414,1.9931901641216418
1415,1.9928880767630517
1416,1.9932609588864054
1417,1.9931797115863714
1418,1.9931497076753888
1419,1.9933491463987023
1420,1.9934717996620592
1421,1.9936513078757356
1422,1.9938587643480477
1423,1.9940570427931723
1424,1.994331044806788
1425,1.9946286776012294
1426,1.9948854106930818
1427,1.9951939020576073
1428,1.995514519944716
1429,1.9958238329381341
1430,1.9961315579540915
1431,1.9964452324179498
1432,1.996743928009755
1433,1.9970273185773322
1434,1.9972973542859105
1435,1.9975529499609632
1436,1.9977897995249183
1437,1.998011221680381
1438,1.9982146459259134
1439,1.9984004081816573
1440,1.9985698731194625
1441,1.998724183364867
1442,1.9988631687322176
1443,1.9989885885178706
1444,1.9991012405513011
1445,1.9992024524404406
1446,1.9992929209482708
1447,1.9993736701657747
1448,1.9994456105160419
1449,1.9995096617984602
1450,1.999566557101803
1451,1.9996171000903982
1452,1.999661835660051
1453,1.9997015267063758
1454,1.9997366278360442
1455,1.999767701924061
1456,1.9997951627974406
1457,1.9998194133368035
1458,1.9998408341982312
1459,1.999859748357131
1460,1.9998764311489126
1461,1.9998911485707636
1462,1.9999041211643276
1463,1.9999155626028204
1464,1.9999256439426
1465,1.9999345276132794
1466,1.9999423554695754
1467,1.9999492508806076
1468,1.999955323452471
1469,1.9999606718522573
1470,1.9999653822128327
1471,1.9999695289913997
1472,1.9999731804108232
1473,1.999976395133999
1474,1.9999792256816649
1475,1.9999817158197084
1476,1.9999839094602052
1477,1.9999858393722139
1478,1.9999875383310655
1479,1.9999890332636747
1480,1.9999903494106406
1481,1.9999915077007415
1482,1.9999925266129113
1483,1.999993423637116
1484,1.999994213088007
1485,1.9999949081551929
1486,1.9999955182789664
1487,1.9999960572150037
1488,1.9999965302682279
1489,1.999996946902872
1490,1.9999973132824742
1491,1.9999976361166896
1492,1.9999979206610707
1493,1.9999981695957516
1494,1.9999983891197304
1495,1.9999985823414566
1496,1.9999987530996337
1497,1.99999890261958
1498,1.9999990343429797
1499,1.9999991513872208
1500,1.9593536157974596
1501,1.9609780667139123
1502,1.9636819961750742
1503,1.9653023923009778
1504,1.9674919125205386
1505,1.9703669990672967
1506,1.9724848991564305
1507,1.9745279815223504
1508,1.976568735949524
1509,1.9785589574456972
1510,1.980500392393331
1511,1.9822271721200215
1512,1.9839422886893754
1513,1.9855177686211913
1514,1.986942787971427
1515,1.9883120195756911
1516,1.9895138633697804
1517,1.990627293417423
1518,1.9916147266592885
1519,1.992537887265391
1520,1.993338179085304
1521,1.9940952206645564
1522,1.9947597860952313
1523,1.9953496814546012
1524,1.9958791224234935
1525,1.9963535703684756
1526,1.9967732123069992
1527,1.9971435938222544
1528,1.997477813804094
1529,1.9977711203439021
1530,1.9980321504995358
1531,1.9982638710922487
1532,1.9984680295809463
1533,1.9986484129653146
1534,1.9988088326306492
1535,1.9989499074042414
1536,1.9990746658884295
1537,1.999184126920442
1538,1.9992811954654452
1539,1.9993671060720741
1540,1.9994427176933303
1541,1.9995090411620438
1542,1.9995676701841214
1543,1.9996191725762225
1544,1.9996648991435781
1545,1.9997048493944602
1546,1.9997402730478346
1547,1.9997713581018408
1548,1.9997987514153488
1549,1.999822855187541
1550,1.9998440733180958
1551,1.9998627763578447
1552,1.99987924107344
1553,1.9998937294463763
1554,1.9999064669859687
1555,1.9999176833959331
1556,1.9999275595157495
1557,1.9999362494392732
1558,1.9999438982307516
1559,1.9999506331380368
1560,1.9999565546807456
1561,1.9999617706515525
1562,1.9999663606549007
1563,1.999970398972139
1564,1.9999739516970778
1565,1.9999770756429667
1566,1.9999798283547674
1567,1.9999822511685423
1568,1.9999843817479792
1569,1.9999862562036312
1570,1.9999879059281571
1571,1.9999893600214997
1572,1.9999906374860905
1573,1.99999176120763
1574,1.999992750746568
1575,1.9999936190479142
1576,1.9999943855826714
1577,1.9999950592126612
1578,1.9999956531268477
1579,1.9999961750423856
1580,1.9999966353626124
1581,1.999997037348751
1582,1.9999973925419408
1583,1.9999977075106332
1584,1.9999979808531732
1585,1.9999982241930458
1586,1.9999984370197088
1587,1.9999986257763849
1588,1.999998790184421
1589,1.9999989394234212
1590,1.9999990651194202
1591,1.9999991772022578
1592,1.999999274905939
1593,1.9999993631571142
1594,1.9999994374289518
1595,1.9999995070023577
1596,1.9999995662965955
1597,1.9999996193884657
1598,1.999999662529785
1599,1.9999997056764767
1600,2.002578441753963
1601,2.00289659204333
1602,2.003121617815597
1603,2.0029579521843104
1604,2.003181576522945
1605,2.0014800604808896
1606,2.0009309065824423
1607,2.0010286307747984
1608,2.000043267466179
1609,1.9998368120876129
1610,1.9995594148558922
1611,1.999188908406341
1612,1.999063581841405
1613,1.9988206857453608
1614,1.9987197759226358
1615,1.998572085026725
1616,1.9985723526824828
1617,1.9985528828581396
1618,1.9985647991473487
1619,1.9985950486145936
1620,1.9986488293976052
1621,1.9987259495172947
1622,1.9987959952458678
1623,1.9988700589406487
1624,1.9989569076206095
1625,1.9990390468760006
1626,1.999120625762746
1627,1.9991983699647617
1628,1.9992729433618368
1629,1.9993436823970552
1630,1.9994092927590676
1631,1.9994692278166792
1632,1.9995244309693196
1633,1.9995751435467142
1634,1.9996209525076722
1635,1.9996624071264344
1636,1.9996997951229638
1637,1.9997334081540838
1638,1.9997635653434809
1639,1.999790392198769
1640,1.999814352945854
1641,1.9998357348056985
1642,1.9998547720909603
1643,1.9998716546776667
1644,1.9998866223663838
1645,1.9998999029021831
1646,1.9999116623397544
1647,1.9999220527500645
1648,1.9999312661778725
1649,1.9999393982111893
1650,1.9999465799616656
1651,1.999952928821565
1652,1.9999585218467848
1653,1.9999634613092916
1654,1.999967814135619
1655,1.999971649777242
1656,1.9999750388125273
1657,1.9999780182657547
1658,1.999980645218336
1659,1.9999829603338126
1660,1.99998499943158
1661,1.9999867946240575
1662,1.9999883755546786
1663,1.9999897682129768
1664,1.999990994633733
1665,1.999992073702707
1666,1.9999930238323873
1667,1.9999938600165874
1668,1.999994596742594
1669,1.999995244754488
1670,1.99999581514899
1671,1.999996317317906
1672,1.9999967587805838
1673,1.9999971480906331
1674,1.9999974902070587
1675,1.9999977911845277
1676,1.9999980567500328
1677,1.9999982900130917
1678,1.9999984949160934
1679,1.9999986756764814
1680,1.999998834830466
1681,1.9999989745598123
1682,1.9999990976521942
1683,1.9999992058879366
1684,1.9999993015011603
1685,1.9999993856423317
1686,1.9999994593613821
1687,1.9999995241765838
1688,1.9999995811283973
1689,1.9999996314493083
1690,1.9999996758525798
1691,1.9999997142310477
1692,1.999999748984818
1693,1.999999779054571
1694,1.9999998051954853
1695,1.999999829430497
1696,1.9999998500352612
1697,1.9999998682495397
1698,1.9999998836126878
1699,1.999999898452315
1700,1.9646270655901985
1701,1.9664703644550847
1702,1.969165251556368
1703,1.9715148422371909
1704,1.9732432034999399
1705,1.9752490079379963
1706,1.9776472459011045
1707,1.9791698223784668
1708,1.9810041282875337
1709,1.9828742032934998
1710,1.984389306703759
1711,1.9859478854464638
1712,1.987285965785853
1713,1.988537501524885
1714,1.9896867086559022
1715,1.9907068289507255
1716,1.991739881728118
1717,1.9926352446118416
1718,1.9934381266523293
1719,1.9941540624588237
1720,1.9948124654235828
1721,1.9953940459211463
1722,1.9959178949771852
1723,1.9963772375783801
1724,1.99678999838742
1725,1.9971633216112286
1726,1.9974879799223861
1727,1.9977835511459658
1728,1.9980422721458126
1729,1.9982717147603344
1730,1.99847547394628
1731,1.998653671309855
1732,1.9988128643753864
1733,1.9989531250657269
1734,1.9990770290969424
1735,1.9991871370322327
1736,1.9992838638235626
1737,1.9993693066179958
1738,1.9994439865295455
1739,1.9995102650450791
1740,1.9995688471179802
1741,1.9996203326121396
1742,1.9996656932344148
1743,1.999705785579634
1744,1.9997408409853183
1745,1.9997718852022248
1746,1.9997991900769714
1747,1.9998232593887841
1748,1.9998444465606968
1749,1.9998630631041785
1750,1.9998795112908936
1751,1.999893924569747
1752,1.9999066487405932
1753,1.9999178531768445
1754,1.9999276963295505
1755,1.9999363745775065
1756,1.9999440090566025
1757,1.999950737484697
1758,1.9999566401969002
1759,1.9999618429506876
1760,1.999966424524425
1761,1.9999704540562637
1762,1.9999740030438056
1763,1.9999771196511351
1764,1.9999798684414936
1765,1.9999822851588647
1766,1.9999844113887202
1767,1.9999862825125247
1768,1.9999879286693094
1769,1.9999893778120668
1770,1.9999906541200312
1771,1.9999917757851216
1772,1.999992761852197
1773,1.9999936313468438
1774,1.9999943980695225
1775,1.9999950697038058
1776,1.9999956638691434
1777,1.9999961830542228
1778,1.9999966415871908
1779,1.9999970445175197
1780,1.9999974001272303
1781,1.9999977122669226
1782,1.9999979867863766
1783,1.9999982286221676
1784,1.9999984420533816
1785,1.9999986275041608
1786,1.9999987951023968
1787,1.9999989405814915
1788,1.9999990657251292
1789,1.9999991775191668
1790,1.9999992757107916
1791,1.9999993644761798
1792,1.9999994394046794
1793,1.9999995086132218
1794,1.999999567294652
1795,1.9999996191417084
1796,1.9999996632389134
1797,1.9999997040421575
1798,1.9999997411632782
1799,1.999999775451672
1800,1.9772236871276943
1801,1.9770263565783583
1802,1.9765228023018104
1803,1.9764554426136802
1804,1.9757294030274917
1805,1.9760192355339739
1806,1.9759763342186485
1807,1.975744097365385
1808,1.976467962165237
1809,1.9773750713652418
1810,1.9778477387117577
1811,1.9786691716440878
1812,1.979691562935073
1813,1.9805828204704663
1814,1.9815324824503144
1815,1.9824938215233083
1816,1.9837099103901905
1817,1.984664206471456
1818,1.985735776275784
1819,1.9868084512658761
1820,1.9878311889677187
1821,1.988810717901448
1822,1.9897586668692202
1823,1.9906617288513506
1824,1.9915023122688236
1825,1.9923002089685662
1826,1.9930426462053552
1827,1.9937244685084028
1828,1.9943610230777553
1829,1.9949376043866898
1830,1.9954694177920709
1831,1.9959513215927653
1832,1.996389516629353
1833,1.9967828487127322
1834,1.9971385648324163
1835,1.9974581562485987
1836,1.9977442991265542
1837,1.9980006493953824
1838,1.9982289283990844
1839,1.9984323493838247
1840,1.9986134015537982
1841,1.9987739927103387
1842,1.9989166808987473
1843,1.9990434839982913
1844,1.9991557258988162
1845,1.9992550043698383
1846,1.9993429248497037
1847,1.9994206251030282
1848,1.9994891549531937
1849,1.9995497568804743
1850,1.9996031692301952
1851,1.999650377810463
1852,1.999692045946557
1853,1.9997287362021239
1854,1.999761097594543
1855,1.9997896166492926
1856,1.9998147437478373
1857,1.9998368940935916
1858,1.99985640118811
1859,1.9998735865661035
1860,1.9998887143925264
1861,1.999902045484743
1862,1.9999137815014665
1863,1.999924114406832
1864,1.9999332105044783
1865,1.9999412165939612
1866,1.9999482629619003
1867,1.9999544700375937
1868,1.9999599300870956
1869,1.9999647372689495
1870,1.9999689674619465
1871,1.9999726915738272
1872,1.9999759686037843
1873,1.9999788520044703
1874,1.9999813915620523
1875,1.9999836235482291
1876,1.9999855901279304
1877,1.9999873179780279
1878,1.9999888412556972
1879,1.999990180335631
1880,1.9999913597295076
1881,1.9999923958309864
1882,1.999993310462621
1883,1.9999941142411357
1884,1.999994819918311
1885,1.9999954409611278
1886,1.9999959887947272
1887,1.9999964712179594
1888,1.999996894493022
1889,1.9999972685608614
1890,1.999997595000565
1891,1.9999978845586808
1892,1.999998137623106
1893,1.9999983609732654
1894,1.9999985590266334
1895,1.9999987322666333
1896,1.9999988831364306
1897,1.999999017780208
1898,1.9999991361536955
1899,1.9999992391983517
1900,2.0000047500199996
1901,2.0000061088349668
1902,2.000008264994331
1903,2.0000109219363447
1904,2.0000137454933067
1905,2.0000191539979664
1906,2.0000247138340588
1907,2.000032675852217
1908,2.0000422168535787
1909,2.000054665610183
1910,2.0000705158318977
1911,2.000091663994874
1912,2.0001176110531547
1913,2.0001514530366697
1914,2.000193947057528
1915,2.000248087845061
1916,2.0003168560996984
1917,2.0004025570370865
1918,2.0005090213709438
1919,2.0006402861819046
1920,2.0008061164723046
1921,2.001008060171032
1922,2.0012553678544425
1923,2.0015521420000746
1924,2.0019085311977034
1925,2.002326577394159
1926,2.002830668052737
1927,2.0034068932255935
1928,2.0040688588611233
1929,2.0048124646419354
1930,2.005641496318791
1931,2.0065424510278844
1932,2.007502847110769
1933,2.008512263539358
1934,2.009542600552092
1935,2.01057786356258
1936,2.0115665650078483
1937,2.012505431307377
1938,2.013353240698739
1939,2.014060506100243
1940,2.0146292806733137
1941,2.0150179066887195
1942,2.0152015657119953
1943,2.0151848584220167
1944,2.014959319575931
1945,2.0145423839359027
1946,2.0139503384247384
1947,2.013207649064649
1948,2.0123478510976636
1949,2.0113980392265884
1950,2.010394420511306
1951,2.009361792884168
1952,2.0083329580896643
1953,2.007331511487481
1954,2.0063789673728083
1955,2.0054906540559156
1956,2.0046776317716968
1957,2.003947204826607
1958,2.0033007568497374
1959,2.0027374220393637
1960,2.0022529347432134
1961,2.001841190744767
1962,2.0014951396609035
1963,2.0012070936021815
1964,2.0009694193826606
1965,2.000774881467436
1966,2.000616664263329
1967,2.0004888626095068
1968,2.0003861707660446
1969,2.000304059527141
1970,2.0002386964157925
1971,2.000186868367413
1972,2.0001459298878785
1973,2.0001136973853875
1974,2.0000883944094814
1975,2.0000685862048213
1976,2.000053120784618
1977,2.0000410769888433
1978,2.000031718858499
1979,2.0000244661474755
1980,2.0000188580843385
1981,2.000014532553772
1982,2.000011204990031
1983,2.0000086518503952
1984,2.0000066987665504
1985,2.00000520991868
1986,2.0000040787064384
1987,2.0000032235691814
1988,2.000002579964791
1989,2.0000020982260014
1990,2.000001740516418
1991,2.0000014770488215
1992,2.000001285191904
1993,2.0000011472449644
1994,2.000001050004594
1995,2.000000983134275
1996,2.000000938755161
1997,2.000000910991032
1998,2.000000895252276
1999,2.0000008881963134
2000,1.973709880049419
2001,1.9752923698651486
2002,1.990904248517757
2003,1.9775571874234887
2004,1.978737114664853
2005,1.9803017101312705
2006,1.9816887897626534
2007,1.983588322267135
2008,1.98472711810941
2009,1.985714699333554
2010,1.9872216679120598
2011,1.988413309833586
2012,1.98943073769309
2013,1.9904639801373245
2014,1.9913759139797929
2015,1.992285452434501
2016,1.993135433215296
2017,1.9938199794618297
2018,1.994479928517503
2019,1.9950752669006955
2020,1.9956157658263154
2021,1.9961008824970048
2022,1.996536851529338
2023,1.996929853553657
2024,1.997276729126702
2025,1.997584196941029
2026,1.9978626114628126
2027,1.9981108058599486
2028,1.9983312879307136
2029,1.9985228357295022
2030,1.9986958201279021
2031,1.9988494905701573
2032,1.9989845376409983
2033,1.9991037767563156
2034,1.9992106979012785
2035,1.9993038659199218
2036,1.9993861467892027
2037,1.9994593588082583
2038,1.9995235519248884
2039,1.999580325832025
2040,1.9996303523483867
2041,1.9996744328868075
2042,1.9997132821451813
2043,1.9997475304345305
2044,1.999777764194118
2045,1.999804309838483
2046,1.999827717453336
2047,1.9998483429982528
2048,1.99986652860268
2049,1.9998824930066847
2050,1.9998965893144036
2051,1.9999089764381286
2052,1.999919901925608
2053,1.9999294929378686
2054,1.9999379486590678
2055,1.9999453898524469
2056,1.999951942689711
2057,1.9999577113727838
2058,1.9999627856257178
2059,1.9999672483556072
2060,1.9999711793695345
2061,1.9999746367203968
2062,1.9999776808051246
2063,1.9999803592424876
2064,1.9999827182101892
2065,1.9999847930497339
2066,1.999986618531706
2067,1.9999882239606048
2068,1.999989638438592
2069,1.9999908831575364
2070,1.9999919766524847
2071,1.999992941557071
2072,1.9999937887639085
2073,1.999994532415182
2074,1.999995190127887
2075,1.9999957677978608
2076,1.9999962758800756
2077,1.9999967225413149
2078,1.9999971155699772
2079,1.99999746077179
2080,1.9999977666033646
2081,1.9999980355304197
2082,1.999998272120568
2083,1.9999984776092963
2084,1.9999986627540554
2085,1.9999988224595975
2086,1.9999989630148347
2087,1.999999088075475
2088,1.999999199737133
2089,1.999999296712509
2090,1.9999993788522026
2091,1.9999994551075486
2092,1.9999995188980197
2093,1.9999995756561537
2094,1.9999996289407234
2095,1.999999672870212
2096,1.9999997118181727
2097,1.9999997452207041
2098,1.9999997770348321
2099,1.9999998073708756
2100,1.9996152106109801
2101,1.9995934917006273
2102,2.000228811244659
2103,2.0005504401185568
2104,2.000887383937895
2105,2.001260576885677
2106,2.001798204047534
2107,2.0023536829663837
2108,2.002746501781115
2109,2.0027227314074603
2110,2.0027674728916787
2111,2.003298168077496
2112,2.0034721940641274
2113,2.0034544517373045
2114,2.0034291618579125
2115,2.0032184205696493
2116,2.0028208502871645
2117,2.002444733066204
2118,2.002127623595144
2119,2.001616074005249
2120,2.0012155703743115
2121,2.000831071294478
2122,2.0004282422707385
2123,2.000047762479509
2124,1.9997348997985112
2125,1.999394049112058
2126,1.9991695117374402
2127,1.998965861983512
2128,1.9988147433531032
2129,1.998711332696498
2130,1.9986519513674224
2131,1.998622464155683
2132,1.9986237902476163
2133,1.9986545675232434
2134,1.9987029582764901
2135,1.998761509966937
2136,1.9988317945441396
2137,1.9989085275594467
2138,1.9989890735812204
2139,1.9990679306507313
2140,1.9991460798394471
2141,1.9992221062622244
2142,1.9992944749076884
2143,1.999362497492641
2144,1.9994254321853766
2145,1.9994839590726474
2146,1.9995376007795953
2147,1.999586632959854
2148,1.9996312172621937
2149,1.9996715281420696
2150,1.999707824076007
2151,1.9997404752660064
2152,1.9997697338703926
2153,1.9997959118923143
2154,1.9998192609051224
2155,1.9998400651392259
2156,1.999858571942325
2157,1.9998750101013514
2158,1.9998896000439126
2159,1.9999025250435098
2160,1.99991397592193
2161,1.9999241059964852
2162,1.9999330711774965
2163,1.9999409859239718
2164,1.9999479804170575
2165,1.999954155348368
2166,1.999959604647974
2167,1.9999644130353194
2168,1.999968652541613
2169,1.99997239090872
2170,1.9999756863375928
2171,1.999978590266468
2172,1.9999811496611517
2173,1.99998340318834
2174,1.999985389368919
2175,1.9999871380909018
2176,1.9999886782573706
2177,1.999990034712522
2178,1.9999912283583163
2179,1.9999922798765761
2180,1.9999932052846954
2181,1.9999940200872621
2182,1.999994737217911
2183,1.9999953689964165
2184,1.9999959245247745
2185,1.9999964131984185
2186,1.9999968435706497
2187,1.9999972225925826
2188,1.999997555843114
2189,1.9999978493241477
2190,1.9999981071527528
2191,1.9999983346006767
2192,1.999998534584784
2193,1.9999987105717596
2194,1.9999988650894582
2195,1.9999990017405167
2196,1.9999991214732495
2197,1.999999227192735
2198,1.9999993200047028
2199,1.9999994022302452
2200,1.966655957632284
2201,1.9690051777726074
2202,1.9708723841866576
2203,1.9724169950001997
2204,1.9746686357600867
2205,1.976823285047857
2206,1.978565750371601
2207,1.980175866292677
2208,1.9820522910044838
2209,1.983706979634448
2210,1.9852709971369775
2211,1.9867098141694197
2212,1.9881068815065606
2213,1.9891466770632382
2214,1.9903044370485985
2215,1.9912760732986425
2216,1.9922502278057945
2217,1.9930771521481065
2218,1.9938340098419327
2219,1.9945210747787414
2220,1.9951097928768815
2221,1.9956655082110784
2222,1.996154741096049
2223,1.9966008019813977
2224,1.9969860516889597
2225,1.9973305250886073
2226,1.9976422711804367
2227,1.9979147690466939
2228,1.9981583184944165
2229,1.9983748922310645
2230,1.9985661887361723
2231,1.998735333559319
2232,1.9988837940515929
2233,1.9990160822213303
2234,1.9991327135189818
2235,1.9992356389939243
2236,1.9993268020248547
2237,1.9994072046622522
2238,1.999477630017404
2239,1.9995398910093458
2240,1.9995945745794501
2241,1.9996431698633774
2242,1.9996856931191733
2243,1.9997234118356908
2244,1.999756430279411
2245,1.9997856213212133
2246,1.9998113004418179
2247,1.999833889128328
2248,1.9998537688428153
2249,1.9998713148719167
2250,1.9998867465392252
2251,1.9999003247580467
2252,1.9999122744110742
2253,1.9999227931583108
2254,1.9999320638736346
2255,1.9999402075308237
2256,1.9999473766068765
2257,1.9999536994120355
2258,1.9999592557522887
2259,1.9999641448504613
2260,1.9999684484861495
2261,1.999972233920764
2262,1.9999755676707887
2263,1.9999785022527392
2264,1.9999810803544873
2265,1.9999833524034092
2266,1.9999853517045605
2267,1.9999871077881615
2268,1.9999886578516652
2269,1.9999900175726966
2270,1.9999912191131939
2271,1.9999922721579872
2272,1.9999932001033998
2273,1.9999940163423438
2274,1.999994735566614
2275,1.9999953669867505
2276,1.9999959231333144
2277,1.9999964121349012
2278,1.9999968430931943
2279,1.9999972220353828
2280,1.9999975568197466
2281,1.9999978488171546
2282,1.9999981076688338
2283,1.999998334049573
2284,1.9999985325253624
2285,1.9999987101766767
2286,1.9999988643699773
2287,1.9999990032273052
2288,1.9999991216087998
2289,1.999999225571746
2290,1.9999993182090199
2291,1.999999402676395
2292,1.9999994717609109
2293,1.9999995388556755
2294,1.9999995928145136
2295,1.9999996424705915
2296,1.9999996851736697
2297,1.999999724388553
2298,1.9999997559759537
2299,1.9999997907582459
2300,2.010847879251955
2301,2.0119959639664833
2302,2.0120043757958213
2303,2.0123575814409342
2304,2.0122284249775984
2305,2.013290703751598
2306,2.0117712430723214
2307,2.011453483952734
2308,2.0109525584984644
2309,2.0103245350504975
2310,2.00969541730532
2311,2.0088262044713487
2312,2.0077063095222956
2313,2.006703130185121
2314,2.0060038475178392
2315,2.005145202254664
2316,2.004369512123901
2317,2.003664482055059
2318,2.0030290385160847
2319,2.0024890548300216
2320,2.0019694056403807
2321,2.0015485016969374
2322,2.0012226401637654
2323,2.000928164372564
2324,2.00078097193637
2325,2.0005156825480586
2326,2.0003636739327306
2327,2.0002461639103433
2328,2.0001554088705906
2329,2.0000902346098397
2330,2.0000389689070626
2331,2.0000015747814484
2332,1.9999745693796316
2333,1.9999572977898297
2334,1.9999455611576904
2335,1.9999391522373355
2336,1.9999357880539137
2337,1.9999353871649963
2338,1.9999365636183986
2339,1.9999390111148865
2340,1.999942374791017
2341,1.9999462051845056
2342,1.9999502162555427
2343,1.999954293134937
2344,1.9999582704687122
2345,1.9999621380675654
2346,1.9999657522573708
2347,1.9999691713394072
2348,1.999972321384332
2349,1.999975219237903
2350,1.9999778652150595
2351,1.9999802648550193
2352,1.9999824357394054
2353,1.9999843892247062
2354,1.9999861416830158
2355,1.9999877139005915
2356,1.999989117481998
2357,1.9999903676022446
2358,1.9999914807685153
2359,1.9999924700318665
2360,1.9999933479888015
2361,1.9999941266371568
2362,1.999994816009235
2363,1.9999954265165376
2364,1.9999959660886124
2365,1.9999964433405253
2366,1.9999968647747464
2367,1.9999972367436754
2368,1.9999975652944435
2369,1.999997854976246
2370,1.9999981104584006
2371,1.9999983357840418
2372,1.9999985344253808
2373,1.999998709463612
2374,1.9999988635959338
2375,1.99999899942795
2376,1.9999991192710724
2377,1.9999992245847173
2378,1.9999993175260251
2379,1.9999993992542302
2380,1.9999994712602556
2381,1.9999995346620534
2382,1.999999590542291
2383,1.999999639428936
2384,1.9999996827117177
2385,1.999999720828898
2386,1.9999997543963322
2387,1.9999997838357129
2388,1.9999998097437257
2389,1.9999998325655959
2390,1.9999998528375136
2391,1.9999998703455342
2392,1.9999998860234596
2393,1.9999998996635346
2394,1.9999999118142342
2395,1.9999999223271256
2396,1.9999999316296644
2397,1.999999939836582
2398,1.9999999472683543
2399,1.9999999539153321
2400,1.9965264243312064
2401,1.9968617783669125
2402,1.9965724441765549
2403,1.9966140178764316
2404,1.9965872713129909
2405,1.9964995893470818
2406,1.9968412930510482
2407,1.996841080167256
2408,1.9972054676090012
2409,1.9973017009243446
2410,1.9975746870306719
2411,1.9975991301705436
2412,1.9977300211051314
2413,1.9978208067213408
2414,1.9977089800251664
2415,1.9977391124231427
2416,1.997502652702446
2417,1.9975825101147318
2418,1.997407348712225
2419,1.997179058687924
2420,1.996936947631273
2421,1.9968591804544382
2422,1.9967355968421978
2423,1.9966458074471065
2424,1.9965442075993616
2425,1.9964985382864506
2426,1.996432108622282
2427,1.99648511349407
2428,1.996523971897865
2429,1.9966003186291816
2430,1.9967194906297434
2431,1.9968441355252327
2432,1.9970009364256074
2433,1.9971729638429216
2434,1.9973538888796811
2435,1.9975406137384877
2436,1.9977268482113855
2437,1.9979078187606505
2438,1.9980868168177397
2439,1.9982572915863073
2440,1.9984189990725436
2441,1.998570814276364
2442,1.9987121520138835
2443,1.9988424456054725
2444,1.9989623104245606
2445,1.9990717488898455
2446,1.999171313477933
2447,1.9992614038573036
2448,1.9993427394879917
2449,1.9994158912588822
2450,1.99948147749498
2451,1.9995401958001817
2452,1.9995926625801423
2453,1.999639418889189
2454,1.999681060560602
2455,1.9997180402774095
2456,1.9997508766816483
2457,1.9997799915704244
2458,1.9998058017043894
2459,1.9998286471932791
2460,1.999848846581336
2461,1.999866710886248
2462,1.9998824962405513
2463,1.9998964316042678
2464,1.9999087308287176
2465,1.9999195882109557
2466,1.9999291620858288
2467,1.999937606719402
2468,1.999945048742103
2469,1.999951610254168
2470,1.999957391566823
2471,1.999962485284044
2472,1.9999669729665863
2473,1.9999709249577096
2474,1.999974405882821
2475,1.999977470719096
2476,1.9999801699803268
2477,1.9999825465134051
2478,1.9999846379589585
2479,1.999986480120326
2480,1.9999881010427965
2481,1.9999895282902767
2482,1.9999907843196119
2483,1.9999918901558587
2484,1.9999928632864479
2485,1.9999937197225979
2486,1.9999944733980626
2487,1.9999951363376582
2488,1.9999957199668477
2489,1.9999962342008464
2490,1.9999966862374086
2491,1.9999970842512813
2492,1.9999974347774274
2493,1.9999977426408777
2494,1.9999980130494666
2495,1.9999982514936867
2496,1.999998462816291
2497,1.9999986467508675
2498,1.9999988093742502
2499,1.9999989521725763
2500,1.9981773371433413
2501,1.9979387686585288
2502,1.9976686909694175
2503,1.9973760972600267
2504,1.9970505300075465
2505,1.996675352067414
2506,1.9962500594712762
2507,1.9957929279536635
2508,1.995290171868807
2509,1.9947351345160438
2510,1.9941065069399997
2511,1.9934201604870996
2512,1.9926884424915199
2513,1.9918761324969179
2514,1.991012243256526
2515,1.9900854779659265
2516,1.9890826698117827
2517,1.9880389038174304
2518,1.9869228983024834
2519,1.9857790832489939
2520,1.9845501128929832
2521,1.9833110023871714
2522,1.9820587707991857
2523,1.9808003639734035
2524,1.979529799304076
2525,1.9783095120892977
2526,1.9771247250083939
2527,1.9760097387751365
2528,1.9750266981709352
2529,1.9741076767198884
2530,1.9733511007967253
2531,1.9727544469909908
2532,1.9723056809271455
2533,1.972072651788642
2534,1.972000801248697
2535,1.9721285928217824
2536,1.9724482043931035
2537,1.9729426908507357
2538,1.9735964806095143
2539,1.9744111328170204
2540,1.9753449581106535
2541,1.9763967902699766
2542,1.977537782609105
2543,1.9787414920151494
2544,1.9799827897807047
2545,1.9812479041555653
2546,1.9825121593919408
2547,1.9837653180409454
2548,1.9849924105640377
2549,1.9861827643303966
2550,1.9873278905353675
2551,1.9884199350555638
2552,1.989454386043316
2553,1.9904274274695473
2554,1.9913363755320992
2555,1.9921808419913785
2556,1.9929610173304342
2557,1.9936784106344405
2558,1.9943348981331788
2559,1.9949331520317073
2560,1.9954761547537625
2561,1.9959674284352746
2562,1.996410603175466
2563,1.9968091015303437
2564,1.997166718966185
2565,1.9974868580263845
2566,1.997772831323822
2567,1.9980279260330964
2568,1.9982550440370732
2569,1.998457025673949
2570,1.9986364037820226
2571,1.9987955465789615
2572,1.9989365951756977
2573,1.999061504408869
2574,1.9991720364250982
2575,1.9992697762048355
2576,1.9993561578444807
2577,1.9994324596737012
2578,1.9994998269732225
2579,1.9995592855595823
2580,1.9996117392784076
2581,1.9996580007858265
2582,1.9996987932087145
2583,1.99973475214101
2584,1.999766440763157
2585,1.999794364691913
2586,1.999818966513998
2587,1.9998406350951368
2588,1.9998597212490912
2589,1.9998765321214926
2590,1.9998913321659388
2591,1.999904364352924
2592,1.999915837511138
2593,1.999925940597481
2594,1.999934830647656
2595,1.9999426585309017
2596,1.9999495511673135
2597,1.9999556120170117
2598,1.9999609504315912
2599,1.9999656487569897
2600,1.9917266620743352
2601,1.9910066448308383
2602,1.9904369322198154
2603,1.989488782333269
2604,1.9888847880474112
2605,1.9882735479054106
2606,1.987530477655632
2607,1.9867674733484924
2608,1.9861925500710458
2609,1.9855643823106617
2610,1.9849596261613274
2611,1.98440574720192
2612,1.984003852253463
2613,1.983493857986689
2614,1.9832824147523422
2615,1.9830296947981023
2616,1.9828322461791705
2617,1.9827187244929636
2618,1.9828642447600544
2619,1.98305315984746
2620,1.983210464880426
2621,1.9835665818099872
2622,1.9840154019768481
2623,1.9844852277441662
2624,1.9850110047349243
2625,1.985610500491833
2626,1.986249283948143
2627,1.986929192337786
2628,1.987647084088122
2629,1.9883595423743123
2630,1.9890893439750748
2631,1.9898276930221284
2632,1.9905352124544125
2633,1.9912411068845035
2634,1.9919298055614432
2635,1.9925957008405861
2636,1.9932282366268
2637,1.993831320699668
2638,1.9943991015105196
2639,1.9949312708013478
2640,1.9954251699055072
2641,1.995882169626623
2642,1.99630244084261
2643,1.9966867311938645
2644,1.9970371449077196
2645,1.9973556305369398
2646,1.997643470538755
2647,1.997902896244138
2648,1.9981361727391846
2649,1.9983454121660114
2650,1.9985325903247584
2651,1.9986998386101786
2652,1.9988490159780616
2653,1.9989816910714227
2654,1.9990996676420978
2655,1.9992044625426015
2656,1.9992973781258918
2657,1.9993797237296367
2658,1.9994526302368438
2659,1.999517137979688
2660,1.9995741647101457
2661,1.9996245533846708
2662,1.9996690722112607
2663,1.9997083530648931
2664,1.9997430325497414
2665,1.9997736167734128
2666,1.99980059311088
2667,1.9998243751248541
2668,1.9998453404350325
2669,1.9998638146717065
2670,1.9998800919684243
2671,1.9998944304961863
2672,1.9999070612285692
2673,1.9999181872308223
2674,1.9999279837495723
2675,1.9999366108085894
2676,1.9999442063236557
2677,1.9999508932434515
2678,1.999956779886781
2679,1.9999619611600843
2680,1.9999665247572287
2681,1.999970539761595
2682,1.9999740743398644
2683,1.9999771843054013
2684,1.999979922012488
2685,1.9999823319220964
2686,1.999984451465754
2687,1.9999863188787907
2688,1.999987960611999
2689,1.99998940539018
2690,1.99999067674318
2691,1.999991796734699
2692,1.9999927807907782
2693,1.9999936480787077
2694,1.9999944113088934
2695,1.9999950825347266
2696,1.9999956732314403
2697,1.999996193083486
2698,1.9999966491349255
2699,1.9999970504728752
2700,1.9749750483962054
2701,1.975449923903856
2702,1.9766752643566856
2703,1.9760344772838432
2704,1.976922029549104
2705,1.9777805007055391
2706,1.9791314401536662
2707,1.9800584070401839
2708,1.9812893417023418
2709,1.982604079677101
2710,1.9835749941300858
2711,1.9847694167635603
2712,1.9858918653451654
2713,1.9870463009461612
2714,1.988023710703229
2715,1.9890479590957701
2716,1.9900513157413746
2717,1.990939363004279
2718,1.9917942984533445
2719,1.9925709383316492
2720,1.9933063616900468
2721,1.993985139091359
2722,1.9946118786267963
2723,1.9951759259821877
2724,1.9956973076293363
2725,1.9961557553350955
2726,1.9965793780998893
2727,1.996956839752907
2728,1.9972964800815831
2729,1.9976027374667937
2730,1.9978744507088533
2731,1.9981158939142216
2732,1.9983332669421852
2733,1.9985256722295055
2734,1.9986969779971493
2735,1.9988491100857937
2736,1.9989830715530852
2737,1.9991026908734661
2738,1.9992083655959505
2739,1.9993016974863618
2740,1.9993841679517683
2741,1.9994572664933052
2742,1.9995216573608994
2743,1.9995783945129195
2744,1.9996285790956378
2745,1.9996728137012891
2746,1.9997117452181836
2747,1.999746172293515
2748,1.9997764851075408
2749,1.9998031906004832
2750,1.9998267327288723
2751,1.9998474446140455
2752,1.9998656973371225
2753,1.999881769687657
2754,1.999895937523439
2755,1.9999083965309907
2756,1.999919378680921
2757,1.99992903915506
2758,1.9999375451889894
2759,1.9999450374248255
2760,1.9999516302297908
2761,1.9999574297125704
2762,1.9999625350603387
2763,1.9999670326103287
2764,1.9999709873238256
2765,1.9999744689720207
2766,1.999977533469375
2767,1.999980230282504
2768,1.9999826023649172
2769,1.9999846909873937
2770,1.9999865282855045
2771,1.9999881452990433
2772,1.9999895682723785
2773,1.9999908209545083
2774,1.9999919241924873
2775,1.999992891166319
2776,1.9999937475579372
2777,1.9999944975089705
2778,1.9999951572875834
2779,1.999995738682006
2780,1.9999962503805564
2781,1.9999967020418496
2782,1.9999970968699405
2783,1.9999974448652311
2784,1.999997750850664
2785,1.9999980215451334
2786,1.9999982579045814
2787,1.9999984687368555
2788,1.9999986519194513
2789,1.9999988149255041
2790,1.9999989564164895
2791,1.9999990812440644
2792,1.999999192914419
2793,1.9999992907403426
2794,1.9999993752762197
2795,1.999999450215783
2796,1.999999514953045
2797,1.9999995737396994
2798,1.9999996248362597
2799,1.9999996735219219
2800,1.9998840170830232
2801,2.0001466538654347
2802,2.000393283896477
2803,2.0007268500932702
2804,2.001043152821454
2805,2.00168795460489
2806,2.002077602307151
2807,2.002625448183676
2808,2.0031555969514763
2809,2.003816127991509
2810,2.0044102726718074
2811,2.0051276988181197
2812,2.00576450567492
2813,2.0063962076350936
2814,2.0067545915550054
2815,2.0071623591633494
2816,2.0074667720443427
2817,2.0075520682097814
2818,2.007694786017474
2819,2.00759426476113
2820,2.0072931194415147
2821,2.0068997492234057
2822,2.006526094709187
2823,2.0059282924210655
2824,2.0054109142525403
2825,2.004735727381623
2826,2.0040765897433985
2827,2.0034387002026617
2828,2.002826801675806
2829,2.002263004008724
2830,2.0017262092309194
2831,2.0012673488121044
2832,2.0008562618105104
2833,2.0005105905815372
2834,2.000228638687547
2835,1.9999986339518556
2836,1.999822888422003
2837,1.9996879323105348
2838,1.999593338976099
2839,1.9995297720202874
2840,1.9994935237891671
2841,1.9994765429452699
2842,1.9994759663023796
2843,1.9994873082159357
2844,1.9995068531189881
2845,1.9995324752117878
2846,1.9995615745046713
2847,1.999592640819891
2848,1.9996244055514458
2849,1.9996559123669884
2850,1.9996865012978342
2851,1.9997156585909859
2852,1.999743150695127
2853,1.999768754650405
2854,1.999792431698232
2855,1.9998141418908226
2856,1.9998339480702219
2857,1.9998519382762014
2858,1.9998681927978719
2859,1.9998828302118608
2860,1.9998959747299867
2861,1.9999077491120452
2862,1.9999182645858324
2863,1.999927644324531
2864,1.9999359957201865
2865,1.9999434169843315
2866,1.9999500075377512
2867,1.9999558532054618
2868,1.9999610310091682
2869,1.9999656153435315
2870,1.999969670751779
2871,1.9999732555044503
2872,1.999976422719934
2873,1.9999792197795392
2874,1.9999816884783594
2875,1.9999838669958347
2876,1.999985788259294
2877,1.9999874826273143
2878,1.9999889763101082
2879,1.9999902926639168
2880,1.9999914529197642
2881,1.9999924750458564
2882,1.9999933754189712
2883,1.9999941685177944
2884,1.9999948666698777
2885,1.9999954817125656
2886,1.999996022966329
2887,1.999996499923729
2888,1.9999969196929568
2889,1.9999972895877818
2890,1.9999976142543814
2891,1.9999979008723057
2892,1.9999981529113566
2893,1.9999983746970675
2894,1.999998569906406
2895,1.9999987418483387
2896,1.9999988934058353
2897,1.9999990259717173
2898,1.9999991431557358
2899,1.9999992460645653
2900,1.9919242939631823
2901,1.9919250123775771
2902,1.991997919919885
2903,1.9914641414140473
2904,1.9915059083303908
2905,1.9910179555317036
2906,1.9908366371509019
2907,1.9908336671466138
2908,1.9908984269129517
2909,1.9907029243848269
2910,1.9905924519836287
2911,1.9906483508371933
2912,1.9906737871909286
2913,1.9909903753972042
2914,1.9909359562077282
2915,1.990915250240784
2916,1.9911101998547347
2917,1.9911094528828202
2918,1.9914405001195936
2919,1.9916025761889826
2920,1.991806254299305
2921,1.9921414670828486
2922,1.9924026592300348
2923,1.9927721118175437
2924,1.9931103477653807
2925,1.9934881972729133
2926,1.993862868095612
2927,1.9942620114818836
2928,1.9946525939074795
2929,1.9950449371090186
2930,1.995433047008889
2931,1.995805674756951
2932,1.9961614671426215
2933,1.996507506675004
2934,1.9968305802419932
2935,1.9971317840259006
2936,1.997413892071248
2937,1.9976736338544638
2938,1.9979132767311967
2939,1.998131967341445
2940,1.9983308711214038
2941,1.9985112874754904
2942,1.9986741379037052
2943,1.998820777529551
2944,1.998952757802971
2945,1.999070945455828
2946,1.9991763531820685
2947,1.9992706390353077
2948,1.9993545328747906
2949,1.9994291836270088
2950,1.9994955297441646
2951,1.9995543412298753
2952,1.9996065205554763
2953,1.9996527112078122
2954,1.9996936023338863
2955,1.9997297474834903
2956,1.9997617116399986
2957,1.9997899467928406
2958,1.9998148624811805
2959,1.9998368720248045
2960,1.9998562818887242
2961,1.9998733972095537
2962,1.9998884911278432
2963,1.9999017983229987
2964,1.999913529511906
2965,1.9999238622003208
2966,1.9999329652783646
2967,1.9999409846452316
2968,1.9999480474769205
2969,1.9999542672908255
2970,1.9999597453955305
2971,1.9999645673633497
2972,1.9999688147375523
2973,1.999972552779311
2974,1.999975844171366
2975,1.999978740551638
2976,1.9999812905244077
2977,1.999983534633176
2978,1.9999855094588415
2979,1.9999872476293372
2980,1.9999887785595403
2981,1.999990125339631
2982,1.999991310366399
2983,1.9999923536315738
2984,1.9999932707107446
2985,1.999994078876626
2986,1.9999947897809964
2987,1.9999954151754133
2988,1.999995965717596
2989,1.9999964497586689
2990,1.9999968754466055
2991,1.9999972514046103
2992,1.999997581154214
2993,1.9999978709063273
2994,1.9999981267735052
2995,1.9999983521279892
2996,1.9999985498117108
2997,1.9999987246900073
2998,1.9999988779290008
2999,1.9999990117732827
3000,1.9999925997735548
3001,1.9999921194313266
3002,1.999991880521766
3003,1.9999921475367872
3004,1.999992007770963
3005,1.9999926576286728
3006,1.999994169850378
3007,1.9999955788753798
3008,1.9999987805353274
3009,2.000003029530976
3010,2.000009308936501
3011,2.000017932450062
3012,2.000029890415954
3013,2.0000455589265203
3014,2.0000680219445384
3015,2.000094802818315
3016,2.0001317855656566
3017,2.000179683900518
3018,2.000241365723725
3019,2.0003189802464005
3020,2.0004187564178237
3021,2.0005432974591537
3022,2.0006995001277503
3023,2.0008943376168067
3024,2.0011310341252675
3025,2.0014193679941585
3026,2.001765267880446
3027,2.0021842502351843
3028,2.002670241343212
3029,2.0032345454977576
3030,2.0038847801564685
3031,2.0046091672500093
3032,2.005415198285763
3033,2.0062937966129635
3034,2.0072177971714193
3035,2.0081888582335052
3036,2.009177138266188
3037,2.0101562210897437
3038,2.0110966112524604
3039,2.0119632583845397
3040,2.012748578972588
3041,2.0134002085754736
3042,2.0138937888169934
3043,2.014206806385627
3044,2.0143326296131567
3045,2.0142594824378137
3046,2.013991653299683
3047,2.013539757590737
3048,2.0129299708617197
3049,2.012185745821207
3050,2.011330883181509
3051,2.010403594719578
3052,2.0094332293472457
3053,2.008445861835478
3054,2.00746954668932
3055,2.0065258790356872
3056,2.0056359348060844
3057,2.0048112535160416
3058,2.0040628925764277
3059,2.0033951002395085
3060,2.002808840607121
3061,2.002301805740595
3062,2.001869274841957
3063,2.0015049558003604
3064,2.001201509004026
3065,2.0009514428646673
3066,2.000747298985531
3067,2.000582188386442
3068,2.0004497019075074
3069,2.000344249205445
3070,2.0002609363338353
3071,2.0001956123623432
3072,2.000144756347157
3073,2.000105463127795
3074,2.0000753394386033
3075,2.0000524461101943
3076,2.0000352092318376
3077,2.0000223717112813
3078,2.0000129408708083
3079,2.0000061204665696
3080,2.0000012917851056
3081,1.9999979691472989
3082,1.9999957756755178
3083,1.999994419705801
3084,1.9999936769501916
3085,1.9999933766493998
3086,1.9999933886498158
3087,1.99999361499362
3088,1.999993982460954
3089,1.9999944373215985
3090,1.9999949401633708
3091,1.999995461995433
3092,1.9999959832782266
3093,1.9999964900785725
3094,1.9999969734505556
3095,1.9999974279928898
3096,1.9999978504457026
3097,1.9999982397606113
3098,1.999998595854762
3099,1.9999989196547971
3100,2.0002369255029984
3101,2.000303486327059
3102,2.0003714379404745
3103,2.0004793379586485
3104,2.0006009998034897
3105,2.0007652349816865
3106,2.000962698110519
3107,2.0011830199874066
3108,2.001466215977466
3109,2.00180701504996
3110,2.002211266340478
3111,2.0026848436489155
3112,2.003245974981695
3113,2.0039003571315703
3114,2.004634489674945
3115,2.0054152175425672
3116,2.0063516587185126
3117,2.007261544636477
3118,2.0082476403310814
3119,2.00927867368425
3120,2.010327978226483
3121,2.0113725069910675
3122,2.0123229370539923
3123,2.0131609455940223
3124,2.013894271800719
3125,2.014502195049083
3126,2.0148821376589066
3127,2.0151597889059354
3128,2.0151621054530566
3129,2.0150426523215255
3130,2.0146224824709713
3131,2.0141106385772525
3132,2.0134011266036365
3133,2.0125310558898977
3134,2.011633947435684
3135,2.010625840938309
3136,2.009597011404499
3137,2.008572271021337
3138,2.007559174673066
3139,2.0065957095258744
3140,2.0056893768972683
3141,2.0048597314451073
3142,2.0041072287873205
3143,2.0034418367128715
3144,2.002858663386219
3145,2.002356640307198
3146,2.0019291738132114
3147,2.0015678008506312
3148,2.0012671002488323
3149,2.001018466366642
3150,2.000814464530117
3151,2.0006483877122356
3152,2.000514088249922
3153,2.0004060064825
3154,2.00031953614822
3155,2.0002506193815317
3156,2.0001959923963297
3157,2.0001528125168617
3158,2.0001187910066505
3159,2.0000920699011333
3160,2.000071156543297
3161,2.00005483630739
3162,2.0000421212116892
3163,2.000032240249865
3164,2.0000245903832683
3165,2.000018677465714
3166,2.0000141182823343
3167,2.00001061703976
3168,2.0000079302057983
3169,2.0000058783021495
3170,2.000004316668382
3171,2.000003133056942
3172,2.0000022398672717
3173,2.0000015696349407
3174,2.0000010698967956
3175,2.000000700238166
3176,2.0000004295509086
3177,2.0000002337922527
3178,2.0000000945015928
3179,1.9999999974195115
3180,1.9999999319151747
3181,1.9999998897315545
3182,1.99999986449786
3183,1.9999998516467223
3184,1.9999998474868288
3185,1.9999998494190288
3186,1.9999998554496745
3187,1.9999998641090513
3188,1.9999998743431966
3189,1.9999998853311354
3190,1.9999998965640835
3191,1.9999999076827977
3192,1.9999999183903494
3193,1.9999999285365726
3194,1.9999999380158944
3195,1.999999946797506
3196,1.999999954886907
3197,1.9999999622338618
3198,1.999999968904167
3199,1.999999974950118
3200,2.0000088582526976
3201,2.0000114488168834
3202,2.0000150788733424
3203,2.000018972143169
3204,2.000024798562838
3205,2.0000314563166133
3206,2.0000399262700834
3207,2.00005185990009
3208,2.0000661221856273
3209,2.0000843351368784
3210,2.0001075135306663
3211,2.000137158266692
3212,2.0001759039400357
3213,2.000224616759097
3214,2.0002839297412427
3215,2.000359462767172
3216,2.0004542788416746
3217,2.000573714562144
3218,2.0007180567760123
3219,2.0008940875741335
3220,2.0011166034154253
3221,2.001387107215634
3222,2.0017073033431805
3223,2.0020903279479194
3224,2.0025484015586095
3225,2.0030799390460254
3226,2.0036894303650112
3227,2.0043878328718305
3228,2.0051568390005676
3229,2.0060348643624737
3230,2.006958090230119
3231,2.0079563045861994
3232,2.0089662664876147
3233,2.0100123840788346
3234,2.011044567665008
3235,2.0120284503205355
3236,2.0129389342119763
3237,2.013748967230515
3238,2.014415329205172
3239,2.014917183094425
3240,2.015236544975869
3241,2.015352080044196
3242,2.0152594775302664
3243,2.014966806727229
3244,2.014477128565284
3245,2.0138220134916236
3246,2.0130313577114514
3247,2.0121281499618417
3248,2.0111489119410266
3249,2.0101262767836228
3250,2.0090853668898685
3251,2.008056016312057
3252,2.0070640525352053
3253,2.006125088134336
3254,2.005256591003024
3255,2.00446601410011
3256,2.0037599317056243
3257,2.003138023948083
3258,2.002598454806426
3259,2.002136146911914
3260,2.0017445081458503
3261,2.0014164149796785
3262,2.0011438300824005
3263,2.0009193619451278
3264,2.000735807818964
3265,2.0005866450966163
3266,2.000466159709889
3267,2.00036937104836
3268,2.0002919120725244
3269,2.0002301849461497
3270,2.000181165091474
3271,2.000142350253729
3272,2.000111704666952
3273,2.000087564853121
3274,2.000068588582173
3275,2.0000536983732955
3276,2.000042033897821
3277,2.0000329085322743
3278,2.000025779269825
3279,2.000020216171493
3280,2.0000158790065394
3281,2.000012500634104
3282,2.0000098704366023
3283,2.000007824875999
3284,2.000006234709049
3285,2.0000049992220417
3286,2.0000040398258587
3287,2.000003295049883
3288,2.0000027171553705
3289,2.000002268945335
3290,2.000001921398851
3291,2.0000016519671573
3292,2.0000014432155937
3293,2.000001281411573
3294,2.000001156154806
3295,2.000001059144509
3296,2.0000009840482607
3297,2.0000009258929103
3298,2.000000880912181
3299,2.0000008460868606
3300,1.9997808394059926
3301,1.999805151844507
3302,1.9998150892285764
3303,1.9998613235134455
3304,1.999919724627826
3305,2.000017058415617
3306,2.000129553825387
3307,2.000291450522668
3308,2.0005317877255364
3309,2.0007852662673233
3310,2.001073017956651
3311,2.0014590595404216
3312,2.0018820891895786
3313,2.0023833315472195
3314,2.002972302238707
3315,2.00364157001307
3316,2.004308142295292
3317,2.005059746070201
3318,2.005872598356272
3319,2.006590056437818
3320,2.0073592768251785
3321,2.0080652956131124
3322,2.008706982912682
3323,2.0092964089694596
3324,2.00980203914906
3325,2.0100220138741043
3326,2.0101690389413878
3327,2.010168835072833
3328,2.009989086763736
3329,2.0096595960606143
3330,2.0092060713471307
3331,2.0086468318740387
3332,2.0079869947263926
3333,2.0072692474163873
3334,2.0065084497172325
3335,2.0057401806987047
3336,2.0049802683222566
3337,2.0042422970028855
3338,2.0035451486185476
3339,2.002909993819341
3340,2.0023346319933415
3341,2.0018297914163243
3342,2.0013940052047574
3343,2.0010249945696894
3344,2.000719809896692
3345,2.000470954817697
3346,2.0002728435815156
3347,2.0001197462556912
3348,2.0000023811460395
3349,1.9999164485202399
3350,1.9998554233635413
3351,1.999814407930008
3352,1.999789318112057
3353,1.999776010333445
3354,1.9997718653659426
3355,1.9997743828210037
3356,1.999781608555481
3357,1.999792083879606
3358,1.9998045417968744
3359,1.9998181306886529
3360,1.9998321811549091
3361,1.9998462024534422
3362,1.9998598570060788
3363,1.9998729204311563
3364,1.9998852301463188
3365,1.9998967097334148
3366,1.9999073141881698
3367,1.9999170418759238
3368,1.999925912349721
3369,1.9999339587173055
3370,1.9999412278111401
3371,1.9999477716270364
3372,1.9999536444684773
3373,1.9999589018621418
3374,1.9999635971394647
3375,1.9999677824808386
3376,1.999971507799413
3377,1.9999748182016783
3378,1.9999777564044485
3379,1.9999803615201313
3380,1.9999826689321536
3381,1.9999847111617077
3382,1.9999865175069849
3383,1.9999881141754878
3384,1.9999895242655492
3385,1.9999907695816947
3386,1.9999918686553206
3387,1.9999928380453458
3388,1.9999936935143756
3389,1.9999944472826836
3390,1.9999951120248067
3391,1.9999956979014237
3392,1.999996214129402
3393,1.9999966687196247
3394,1.999997069546088
3395,1.9999974223026293
3396,1.999997733003023
3397,1.999998006543765
3398,1.9999982474478102
3399,1.9999984595286124
3400,1.9694131134101867
3401,1.9676279237941412
3402,1.966051413100999
3403,1.964374557873239
3404,1.9636960532975887
3405,1.962958180724268
3406,1.9617505927419991
3407,1.9614195085783186
3408,1.9616702861703887
3409,1.9613678596611568
3410,1.9622183829066766
3411,1.9630444571740415
3412,1.9640471091194949
3413,1.9653045378954954
3414,1.9665860810639966
3415,1.9681401011797302
3416,1.9698625058081998
3417,1.9715914315668057
3418,1.9733713779218571
3419,1.9751608548592074
3420,1.9769733576879123
3421,1.9786736910674652
3422,1.9803920549436058
3423,1.9820186641893511
3424,1.9835690243850004
3425,1.9850727033474307
3426,1.9864386752366339
3427,1.987744514110884
3428,1.9889403307264975
3429,1.99005111201234
3430,1.9910687110697916
3431,1.9919993811166428
3432,1.9928469775823292
3433,1.9936166639225015
3434,1.9943086201410878
3435,1.9949377285193726
3436,1.9955013166037827
3437,1.9960066481521632
3438,1.9964567548225511
3439,1.9968599747885227
3440,1.9972213659174443
3441,1.9975411588067782
3442,1.9978260621002584
3443,1.9980791953191042
3444,1.9983029936331436
3445,1.9985018911012205
3446,1.9986780783256939
3447,1.9988337544571622
3448,1.998971467845226
3449,1.9990931534180407
3450,1.9992006728929506
3451,1.9992955472293776
3452,1.999379214373463
3453,1.9994531831979137
3454,1.9995182989909974
3455,1.9995757382016244
3456,1.9996263836570565
3457,1.999670999945267
3458,1.9997103216810248
3459,1.99974495482773
3460,1.9997754743068465
3461,1.9998023454092704
3462,1.9998260129202958
3463,1.999846852377102
3464,1.9998652036447617
3465,1.9998813576956296
3466,1.9998955811732653
3467,1.99990810123714
3468,1.9999191213824479
3469,1.9999288203198164
3470,1.9999373596501564
3471,1.9999448745198862
3472,1.9999514899465085
3473,1.999957310011742
3474,1.9999624304845638
3475,1.9999669403946803
3476,1.999970906618378
3477,1.9999743989937995
3478,1.9999774728122035
3479,1.999980177974578
3480,1.9999825585034179
3481,1.9999846500678495
3482,1.9999864956204978
3483,1.9999881155598798
3484,1.9999895415424758
3485,1.999990797632528
3486,1.9999919027181323
3487,1.999992875180287
3488,1.9999937306016908
3489,1.9999944811162975
3490,1.9999951435636543
3491,1.9999957284374155
3492,1.9999962431448788
3493,1.999996693884733
3494,1.999997089756523
3495,1.9999974396111084
3496,1.9999977464308303
3497,1.9999980176104641
3498,1.9999982549201554
3499,1.9999984659103756
3500,1.9845275342445001
3501,1.9828223266337497
3502,1.9810892891873926
3503,1.9792209205889366
3504,1.9771715906603622
3505,1.9750813955016642
3506,1.9730912480324325
3507,1.9709091232766585
3508,1.9683750786356424
3509,1.9662764319159374
3510,1.9640509673479283
3511,1.9618801692229437
3512,1.9598554716826218
3513,1.9580121715505447
3514,1.9562974280497842
3515,1.95497250298444
3516,1.9539366772992444
3517,1.9531513122787008
3518,1.95271417017162
3519,1.9526521187963168
3520,1.9528893091626336
3521,1.9536104236944216
3522,1.9546102534804903
3523,1.955885920996135
3524,1.9574577809926046
3525,1.9592499346498884
3526,1.9612296490715926
3527,1.9633509656531007
3528,1.965524725791932
3529,1.9677739541551715
3530,1.970024245920296
3531,1.9722414427657131
3532,1.9744343569462661
3533,1.9765329642942824
3534,1.978549132266028
3535,1.9804601845813468
3536,1.9822640170527326
3537,1.9839479801053794
3538,1.9855085532148176
3539,1.9869547186397887
3540,1.988284924595885
3541,1.9895016029340185
3542,1.9906066901294812
3543,1.9916156097293058
3544,1.992525616676512
3545,1.9933465317521872
3546,1.994085288240539
3547,1.9947479302234001
3548,1.9953414365731343
3549,1.9958712065102269
3550,1.996343972888514
3551,1.9967648064381052
3552,1.9971391445134952
3553,1.9974716139864548
3554,1.9977666319668872
3555,1.9980280877638215
3556,1.9982597040873067
3557,1.998464552111896
3558,1.9986458186135017
3559,1.9988059350486602
3560,1.9989474052695189
3561,1.999072314741494
3562,1.9991825620292698
3563,1.9992798081564327
3564,1.999365606421737
3565,1.9994412479426962
3566,1.9995079244905332
3567,1.9995666856233785
3568,1.9996184695742618
3569,1.9996640851890182
3570,1.9997042713992486
3571,1.9997396665016154
3572,1.9997708390073723
3573,1.9997982857036736
3574,1.9998224511573066
3575,1.999843728386938
3576,1.9998624616873737
3577,1.999878951820634
3578,1.9998934667048205
3579,1.9999062460641626
3580,1.9999174917776263
3581,1.999927389475283
3582,1.9999361020217967
3583,1.9999437704267558
3584,1.9999505196856682
3585,1.9999564567281471
3586,1.9999616818546764
3587,1.9999662808889613
3588,1.9999703287531116
3589,1.9999738903311441
3590,1.9999770266156685
3591,1.9999797833215422
3592,1.9999822108744338
3593,1.999984348122198
3594,1.9999862255973484
3595,1.9999878797575414
3596,1.9999893369986879
3597,1.9999906159077547
3598,1.9999917434403263
3599,1.9999927344973387
3600,1.998847069492728
3601,1.9988204941465801
3602,1.9987253879551672
3603,1.9987205209817978
3604,1.9987084702791085
3605,1.9987448345856642
3606,1.998823083855491
3607,1.9989524061964008
3608,1.9991379577334734
3609,1.9992541455036497
3610,1.9996026071810904
3611,2.000203914637604
3612,2.0002441653477985
3613,2.0006477554270754
3614,2.0010371516177865
3615,2.0015511711287592
3616,2.001998322748101
3617,2.0024321206879616
3618,2.002775042192511
3619,2.003171475263263
3620,2.0034402082409284
3621,2.0037191461798254
3622,2.0038470534833612
3623,2.0038309060404567
3624,2.0037709663897907
3625,2.0035781936378836
3626,2.003341399879877
3627,2.0029807994124016
3628,2.0026149506816795
3629,2.002162613427758
3630,2.001730509052704
3631,2.0012823140234235
3632,2.000857146963594
3633,2.000442857566188
3634,2.0000520836559073
3635,1.9997208484162827
3636,1.9994328175119718
3637,1.9991974928896699
3638,1.9990149227842922
3639,1.9988791425762702
3640,1.9987886846073097
3641,1.9987371546133288
3642,1.9987194613032528
3643,1.9987295508080474
3644,1.998761650815777
3645,1.9988096990073982
3646,1.9988698028597232
3647,1.9989375719147846
3648,1.9990101274747918
3649,1.9990844704324569
3650,1.9991586487964605
3651,1.9992310548698222
3652,1.9993005692202142
3653,1.9993663704305702
3654,1.9994281633698903
3655,1.9994854979566985
3656,1.9995383577018242
3657,1.9995867638427403
3658,1.9996309128196796
3659,1.999670911025741
3660,1.9997070561957602
3661,1.9997395982508708
3662,1.999768809237451
3663,1.9997949710789278
3664,1.9998183408407817
3665,1.9998391827060022
3666,1.999857738795778
3667,1.999874232825473
3668,1.9998888793429488
3669,1.9999018676830602
3670,1.9999133768618298
3671,1.999923564881196
3672,1.9999325781475998
3673,1.9999405456698818
3674,1.9999475859052895
3675,1.999953802932304
3676,1.9999592910141972
3677,1.9999641332954636
3678,1.999968404981001
3679,1.9999721718507413
3680,1.999975492083925
3681,1.9999784192728496
3682,1.999980998624011
3683,1.9999832706767622
3684,1.999985272365586
3685,1.999987035890427
3686,1.99998858881304
3687,1.9999899556710066
3688,1.9999911601878673
3689,1.9999922199438502
3690,1.999993153477716
3691,1.9999939750533977
3692,1.9999946982019632
3693,1.999995334760387
3694,1.9999958949429302
3695,1.9999963881847798
3696,1.9999968225838938
3697,1.9999972049941972
3698,1.999997540700273
3699,1.9999978370141287
3700,2.0019219030753983
3701,2.0023461003294605
3702,2.002913554229348
3703,2.0035160603734385
3704,2.004104537264029
3705,2.0048400570753753
3706,2.0057138529755183
3707,2.006721341735514
3708,2.007652347480555
3709,2.0084926944953554
3710,2.0097213642873735
3711,2.0106177147602464
3712,2.011791907891842
3713,2.0123864705360077
3714,2.013387561350493
3715,2.0140618519548585
3716,2.0144798565321884
3717,2.0149452204109313
3718,2.015175005508133
3719,2.015174439908881
3720,2.014866946179756
3721,2.0145189504176284
3722,2.013836337911005
3723,2.013069320348129
3724,2.012245242150077
3725,2.011308075217981
3726,2.0102939990380944
3727,2.0092315589859817
3728,2.008195679943105
3729,2.007212365373174
3730,2.006267075009744
3731,2.005391885684059
3732,2.0045823627550545
3733,2.0038677663890363
3734,2.003227890907036
3735,2.002675670355252
3736,2.002199101855578
3737,2.0017938244459175
3738,2.0014565755515856
3739,2.0011747243536573
3740,2.0009417355062364
3741,2.00075090605459
3742,2.000596200038313
3743,2.0004716769662747
3744,2.0003714675769775
3745,2.0002917763819243
3746,2.0002283048932226
3747,2.0001779331510856
3748,2.0001383670951696
3749,2.000107109056739
3750,2.000082714379024
3751,2.000063652012207
3752,2.0000487995038436
3753,2.0000372591152265
3754,2.0000283347780536
3755,2.000021430312146
3756,2.0000161188521375
3757,2.0000120488559316
3758,2.0000089259492295
3759,2.0000065500211335
3760,2.00000474681926
3761,2.0000033851203702
3762,2.000002363024805
3763,2.0000016006303745
3764,2.0000010357916356
3765,2.0000006221715134
3766,2.0000003232115318
3767,2.0000001098186284
3768,1.9999999614288524
3769,1.999999861250204
3770,1.9999997965748546
3771,1.9999997581449491
3772,1.9999997383284547
3773,1.9999997320635292
3774,1.999999735026492
3775,1.9999997442589774
3776,1.9999997575434676
3777,1.99999977320775
3778,1.999999790081454
3779,1.9999998073265022
3780,1.999999824349442
3781,1.9999998407424215
3782,1.9999998563131332
3783,1.9999998708691473
3784,1.9999998843412499
3785,1.9999998967095387
3786,1.9999999080036077
3787,1.9999999182485677
3788,1.9999999275130926
3789,1.9999999358252272
3790,1.9999999433094233
3791,1.9999999499902943
3792,1.9999999559590875
3793,1.999999961298411
3794,1.9999999660237902
3795,1.9999999702161557
3796,1.999999973965498
3797,1.9999999772798172
3798,1.999999980186136
3799,1.999999982798233
3800,2.000019209140779
3801,2.0000251326983234
3802,2.0000318598316866
3803,2.000039743456284
3804,2.000051771037217
3805,2.000066965086511
3806,2.000084862324859
3807,2.0001089645629735
3808,2.0001364987477586
3809,2.000177654932926
3810,2.000224801139826
3811,2.000286013551696
3812,2.0003614601866455
3813,2.000459178665372
3814,2.000575335059954
3815,2.0007213697948423
3816,2.000903115508297
3817,2.0011220395499825
3818,2.0013903303127885
3819,2.0017154429324404
3820,2.002103146757746
3821,2.0025622103021443
3822,2.0030940135594815
3823,2.0037112237556327
3824,2.004410521932005
3825,2.005191871403044
3826,2.0060435262202008
3827,2.006986062424032
3828,2.007983056722277
3829,2.009002600421931
3830,2.0100431878806004
3831,2.0110692871490508
3832,2.0120575605496946
3833,2.0129547909988657
3834,2.013763318184864
3835,2.014427554035509
3836,2.014921810908915
3837,2.0152457452009434
3838,2.0153516933108637
3839,2.01524484712916
3840,2.014939947348765
3841,2.0144484528475175
3842,2.0137911888204734
3843,2.012995154743013
3844,2.012088643342312
3845,2.0111072127016847
3846,2.0100856209839444
3847,2.0090455163514807
3848,2.0080138599163715
3849,2.007023868096231
3850,2.006088694112509
3851,2.0052224820234037
3852,2.0044356553086993
3853,2.00373332172477
3854,2.0031145773634833
3855,2.0025778439055064
3856,2.00211830829879
3857,2.0017295619734523
3858,2.001403669036574
3859,2.001133057752814
3860,2.000910316497393
3861,2.00072818893022
3862,2.0005803572487397
3863,2.0004609260125523
3864,2.000364994331162
3865,2.000288250550306
3866,2.0002271143971018
3867,2.000178583241761
3868,2.000140167782041
3869,2.0001098443841
3870,2.0000859660080152
3871,2.0000672034138143
3872,2.000052488714886
3873,2.000040965122303
3874,2.0000319557543973
3875,2.0000249211273062
3876,2.0000194354807372
3877,2.0000151615376565
3878,2.000011834810106
3879,2.0000092480892473
3880,2.000007238114064
3881,2.000005677497801
3882,2.000004466656126
3883,2.000003527693212
3884,2.0000028002639456
3885,2.00000223696269
3886,2.0000018009716642
3887,2.0000014637311945
3888,2.0000012031975234
3889,2.00000100193209
3890,2.0000008466040935
3891,2.0000007268667668
3892,2.000000634527543
3893,2.0000005635090736
3894,2.0000005089013912
3895,2.000000466968602
3896,2.0000004347906013
3897,2.00000041019118
3898,2.0000003913517044
3899,2.0000003770086003
3900,1.976395073179612
3901,1.976803361758425
3902,1.97765958191058
3903,1.9789950023702092
3904,1.9796242812750482
3905,1.9811493916086704
3906,1.982691354245411
3907,1.983547228839615
3908,1.9849336281662164
3909,1.9860214835777246
3910,1.9871164758545976
3911,1.9882996717965173
3912,1.9891762263250252
3913,1.9902688944716342
3914,1.9911338562317036
3915,1.991992076742866
3916,1.9927996649100765
3917,1.993510081922257
3918,1.9941808328871113
3919,1.9947907738644004
3920,1.9953463928234767
3921,1.995852202918772
3922,1.9962999807988517
3923,1.9967077996481917
3924,1.9970787534188792
3925,1.997408820113126
3926,1.9977009595477857
3927,1.9979632731329149
3928,1.9981974774766287
3929,1.9984068491082303
3930,1.9985905079874702
3931,1.9987553182944167
3932,1.9989007508503829
3933,1.9990295630010826
3934,1.9991437117374504
3935,1.9992446820986565
3936,1.9993340562914803
3937,1.9994126054434218
3938,1.9994824234553572
3939,1.9995440660901616
3940,1.9995983174262237
3941,1.9996460241747644
3942,1.9996882430676235
3943,1.9997254557559763
3944,1.9997582202959776
3945,1.9997870241836122
3946,1.999812523112986
3947,1.9998349573932193
3948,1.9998546760606994
3949,1.9998721206505337
3950,1.9998874190120606
3951,1.999900894183096
3952,1.9999127766024019
3953,1.9999232281563164
3954,1.9999324297687706
3955,1.9999405292181411
3956,1.9999476704064678
3957,1.9999539418200296
3958,1.9999594715906281
3959,1.9999643274188752
3960,1.9999686138437567
3961,1.9999723787981196
3962,1.9999756964059034
3963,1.9999786111748168
3964,1.9999811789142616
3965,1.9999834375165777
3966,1.999985425469641
3967,1.9999871751587333
3968,1.9999887153940819
3969,1.9999900700447515
3970,1.9999912612654882
3971,1.9999923098406518
3972,1.9999932339324307
3973,1.9999940473850817
3974,1.9999947609820001
3975,1.9999953903148662
3976,1.9999959439343824
3977,1.9999964307296008
3978,1.9999968601560056
3979,1.999997236269474
3980,1.9999975672211274
3981,1.9999978603860782
3982,1.9999981175932873
3983,1.999998342757338
3984,1.9999985434823568
3985,1.9999987168077984
3986,1.9999988724929185
3987,1.9999990073868275
3988,1.9999991272073196
3989,1.9999992308537695
3990,1.9999993247161396
3991,1.9999994051299905
3992,1.9999994767689
3993,1.9999995398607593
3994,1.9999995926795178
3995,1.999999643311746
3996,1.9999996875004837
3997,1.999999724194312
3998,1.9999997579561934
3999,1.9999997864609123
4000,2.0000036069379323
4001,2.0000046132857308
4002,2.0000062043748055
4003,2.000007814876368
4004,2.0000098065120513
4005,2.000012372932363
4006,2.00001623248914
4007,2.0000207115948245
4008,2.000026787262752
4009,2.000034474560948
4010,2.0000440781322526
4011,2.000056973138624
4012,2.000072627025677
4013,2.0000936379072307
4014,2.0001185044350986
4015,2.0001521268778406
4016,2.0001937263183205
4017,2.000245854378453
4018,2.0003115106555454
4019,2.0003952045186293
4020,2.0004986514133836
4021,2.0006280095931905
4022,2.000785196896879
4023,2.000981819829555
4024,2.001220136533576
4025,2.001510505043524
4026,2.0018556673874417
4027,2.0022675189872317
4028,2.002750018925473
4029,2.0033178590637837
4030,2.0039625145681965
4031,2.0046889184063117
4032,2.0055084869342
4033,2.0064017001919496
4034,2.007356236858806
4035,2.008366096343485
4036,2.0093965552758877
4037,2.0104334349795496
4038,2.011446434679446
4039,2.0124094428146386
4040,2.0132807653849105
4041,2.014031818634811
4042,2.014639172604333
4043,2.0150663005382397
4044,2.015300942709848
4045,2.0153267422878893
4046,2.0151528853796705
4047,2.014774545596983
4048,2.014219394335362
4049,2.013505514005791
4050,2.0126630176971
4051,2.011725536057281
4052,2.010724369948226
4053,2.0096899662759236
4054,2.0086522931373265
4055,2.0076360930025943
4056,2.0066644091819006
4057,2.005753320640476
4058,2.004916600199395
4059,2.0041612090152277
4060,2.003490402741729
4061,2.0029032736752996
4062,2.0023966463261718
4063,2.0019647245690866
4064,2.001600521920879
4065,2.0012965772865856
4066,2.001044958691437
4067,2.0008383935473115
4068,2.0006699574569966
4069,2.0005335056576463
4070,2.000423533976889
4071,2.000335324764799
4072,2.0002648896886757
4073,2.000208852426856
4074,2.000164415898844
4075,2.000129282948916
4076,2.000101577907949
4077,2.000079780063076
4078,2.000062665238305
4079,2.0000492516606467
4080,2.0000387547157477
4081,2.0000305527230444
4082,2.0000241517062816
4083,2.0000191617845022
4084,2.000015276351813
4085,2.0000122530710414
4086,2.000009903286463
4087,2.000008078224955
4088,2.0000066616477876
4089,2.000005562961472
4090,2.0000047113403916
4091,2.0000040518379634
4092,2.000003541273456
4093,2.0000031463422006
4094,2.0000028410512876
4095,2.0000026051750646
4096,2.000002423063301
4097,2.000002282609173
4098,2.00000217439156
4099,2.0000020910153067
4100,1.9718587825668727
4101,1.9715871083133656
4102,1.9741513678893559
4103,1.9734432063536664
4104,1.9744899212450917
4105,1.9752352148757506
4106,1.9762180620113685
4107,1.977647095520229
4108,1.9788557180633723
4109,1.9801202291305438
4110,1.981237218628151
4111,1.9826785636081565
4112,1.9839085025161598
4113,1.9851936311523815
4114,1.9863661062812754
4115,1.9874208104112934
4116,1.9885472458227496
4117,1.989558700468784
4118,1.9905127270301655
4119,1.9914268775144297
4120,1.9922764732331095
4121,1.9930405451545226
4122,1.993743603259934
4123,1.994394942682436
4124,1.99498560774746
4125,1.995527714489974
4126,1.9960142809220311
4127,1.996451010417957
4128,1.9968430601743556
4129,1.9971973656073778
4130,1.9975150724596515
4131,1.9977984681811825
4132,1.9980491296081746
4133,1.9982747721410286
4134,1.9984744506754615
4135,1.9986518243006124
4136,1.9988090578210105
4137,1.9989490433174653
4138,1.9990719448109266
4139,1.999181284299314
4140,1.9992781245888684
4141,1.9993635236984602
4142,1.9994388347328917
4143,1.9995053982906243
4144,1.9995642113927203
4145,1.999616066172473
4146,1.9996618142563218
4147,1.9997021393381207
4148,1.9997376952326171
4149,1.999769009596462
4150,1.9997966256353312
4151,1.9998209285953403
4152,1.9998423533150123
4153,1.9998612295744382
4154,1.9998778333982965
4155,1.9998924842449468
4156,1.999905357459051
4157,1.9999166951945282
4158,1.9999266866360006
4159,1.9999354787859343
4160,1.9999432095224197
4161,1.9999500207545886
4162,1.9999560151251832
4163,1.9999612956448682
4164,1.9999659364066347
4165,1.999970025919631
4166,1.999973622372176
4167,1.9999767875131105
4168,1.99997957305465
4169,1.9999820252564957
4170,1.9999841827653324
4171,1.9999860815540742
4172,1.999987752378625
4173,1.9999892233377972
4174,1.99999051649528
4175,1.9999916548673284
4176,1.9999926567938697
4177,1.999993538247371
4178,1.99999431405886
4179,1.9999949959204426
4180,1.9999955983899738
4181,1.9999961264427415
4182,1.9999965918877165
4183,1.9999969999618883
4184,1.9999973615596678
4185,1.9999976767338157
4186,1.9999979557488357
4187,1.9999982020101845
4188,1.9999984179928674
4189,1.999998606808616
4190,1.999998774691593
4191,1.9999989221426262
4192,1.9999990511748407
4193,1.999999166366649
4194,1.9999992658288797
4195,1.9999993546145745
4196,1.999999431135698
4197,1.9999994982438265
4198,1.999999560422817
4199,1.9999996138305234
4200,1.9984404459538614
4201,1.9995659552319862
4202,1.999856437067737
4203,1.9988601572792866
4204,1.9994100151336984
4205,1.998251286745384
4206,1.99804136811838
4207,1.9975893641787306
4208,1.99799650398159
4209,1.9975388169335737
4210,1.9973208624314172
4211,1.9970239193052868
4212,1.9968897682331672
4213,1.9969089928132986
4214,1.9968766924398698
4215,1.9968439985999176
4216,1.9969161498164207
4217,1.9970053114472737
4218,1.9971111582587335
4219,1.9972203920654668
4220,1.9973724967045845
4221,1.9975138379118016
4222,1.9976832092049976
4223,1.9978550252272995
4224,1.9980196361819618
4225,1.9981896262667922
4226,1.9983435692251985
4227,1.9984956988734188
4228,1.9986364872131988
4229,1.9987680158743195
4230,1.9988899372930373
4231,1.999004931803944
4232,1.9991094065242345
4233,1.999204419845774
4234,1.9992898976992461
4235,1.9993673493378057
4236,1.9994373892301294
4237,1.9995003672034921
4238,1.9995567762610886
4239,1.9996071020898087
4240,1.9996520695436497
4241,1.9996920992516527
4242,1.9997277508046356
4243,1.9997593544257892
4244,1.9997874949439591
4245,1.9998123471418285
4246,1.9998344081232902
4247,1.999853916272504
4248,1.999871144643986
4249,1.9998863941998621
4250,1.9998998527625913
4251,1.9999117362475551
4252,1.9999222285937954
4253,1.99993148819117
4254,1.9999396498826443
4255,1.9999468440461121
4256,1.9999531913549433
4257,1.9999587773334855
4258,1.9999637048941046
4259,1.9999680417429728
4260,1.9999718698001236
4261,1.9999752350177888
4262,1.9999782015545284
4263,1.9999808135359394
4264,1.9999831120468647
4265,1.999985135596337
4266,1.9999869175502196
4267,1.999988486012633
4268,1.9999898668080527
4269,1.9999910828572298
4270,1.9999921517169719
4271,1.9999930931346057
4272,1.999993922305522
4273,1.9999946509469329
4274,1.9999952932921585
4275,1.9999958580680124
4276,1.999996355458669
4277,1.9999967932499227
4278,1.99999717787375
4279,1.9999975162585497
4280,1.9999978149718594
4281,1.9999980768249277
4282,1.9999983076608834
4283,1.999998510883483
4284,1.9999986898897142
4285,1.9999988475864914
4286,1.9999989851248596
4287,1.999999107144117
4288,1.9999992144157392
4289,1.999999309042361
4290,1.9999993914756087
4291,1.999999465652476
4292,1.9999995288925827
4293,1.9999995856092139
4294,1.9999996356094285
4295,1.9999996796423156
4296,1.9999997179098181
4297,1.9999997519863064
4298,1.9999997817730217
4299,1.9999998088879338
4300,1.964275409186194
4301,1.961123168967919
4302,1.9591765376827128
4303,1.9569957407246545
4304,1.9548924782784602
4305,1.9534979300929642
4306,1.9523358946892293
4307,1.95105650837512
4308,1.950467328170668
4309,1.9502479397191355
4310,1.9505537415124623
4311,1.9510848269094205
4312,1.9517788611242717
4313,1.9529921970217368
4314,1.954585789328201
4315,1.9563151992754635
4316,1.9582690178955424
4317,1.960490789566258
4318,1.9627691640205787
4319,1.9651162388492667
4320,1.9674844043749156
4321,1.9698669137516156
4322,1.9721187682449899
4323,1.974407679664662
4324,1.9765585113929027
4325,1.9786543064109778
4326,1.980585762046637
4327,1.982414989250787
4328,1.9841023572763814
4329,1.9856782611637118
4330,1.987131435300675
4331,1.9884598000166231
4332,1.9896715641155467
4333,1.9907684292157624
4334,1.9917677651030665
4335,1.992666151890678
4336,1.9934784019481189
4337,1.994208819362582
4338,1.9948604834522132
4339,1.9954434050901495
4340,1.9959643423034878
4341,1.9964277766475085
4342,1.9968407769421401
4343,1.997207397196692
4344,1.997532855307273
4345,1.9978213253395283
4346,1.99807679244099
4347,1.9983030485839681
4348,1.9985033712852893
4349,1.998680231074254
4350,1.9988364833037136
4351,1.9989744431798118
4352,1.9990962807628991
4353,1.999203785213488
4354,1.999298552189784
4355,1.9993821693541445
4356,1.9994558610096584
4357,1.9995208329644054
4358,1.9995780818260203
4359,1.9996285345060378
4360,1.9996729614344986
4361,1.9997120781931883
4362,1.9997465618254937
4363,1.9997769124423046
4364,1.999803625196936
4365,1.999827165935557
4366,1.999847880843529
4367,1.9998661165130975
4368,1.9998821690540622
4369,1.999896299715406
4370,1.9999087388653138
4371,1.999919687443136
4372,1.999929322768737
4373,1.9999378053133072
4374,1.999945266917
4375,1.9999518377670251
4376,1.9999576157716663
4377,1.9999627026908282
4378,1.9999671795322764
4379,1.99997111973984
4380,1.9999745871072698
4381,1.9999776352296215
4382,1.9999803237814389
4383,1.999982685561168
4384,1.9999847627506673
4385,1.9999865918725983
4386,1.9999882007535774
4387,1.9999896184364558
4388,1.9999908688312271
4389,1.9999919644459565
4390,1.9999929258281972
4391,1.9999937765256866
4392,1.9999945262347916
4393,1.9999951800614606
4394,1.9999957600229412
4395,1.9999962687352264
4396,1.999996716385474
4397,1.9999971126323135
4398,1.9999974577920547
4399,1.9999977594487544
4400,2.0075601307336406
4401,2.0088417574380415
4402,2.009491299994934
4403,2.010919998396021
4404,2.011652107203901
4405,2.0116924705216737
4406,2.0127299292339127
4407,2.013270045835968
4408,2.0137960654283966
4409,2.013712795817659
4410,2.0137761506635536
4411,2.013248860344222
4412,2.01309884198936
4413,2.0123588899163747
4414,2.011718226623621
4415,2.0110315714841964
4416,2.0100101788766622
4417,2.0090452918763027
4418,2.0080733725771536
4419,2.0071208938422913
4420,2.0061985814932544
4421,2.0053540882436796
4422,2.0045680311752276
4423,2.0038530413521114
4424,2.003223686892179
4425,2.002634613002737
4426,2.002123454259837
4427,2.0017311820092965
4428,2.0013761615264207
4429,2.0010861089588357
4430,2.0008481198257577
4431,2.0006509851323657
4432,2.00049961839744
4433,2.0003759173570437
4434,2.0002786438713698
4435,2.000201157540641
4436,2.000143312255871
4437,2.0000983478800363
4438,2.00006396721771
4439,2.000038775855976
4440,2.0000196595553534
4441,2.0000059235936947
4442,1.9999964032279478
4443,1.9999897577895813
4444,1.9999855070147021
4445,1.9999829478769464
4446,1.9999815666275529
4447,1.9999811094419275
4448,1.999981313606677
4449,1.9999819189290609
4450,1.9999828364671575
4451,1.9999839066791492
4452,1.9999850673760597
4453,1.9999862634800434
4454,1.9999874490576133
4455,1.9999885956787762
4456,1.999989685908499
4457,1.9999907057730428
4458,1.9999916523832957
4459,1.9999925235946436
4460,1.9999933196072328
4461,1.9999940425067797
4462,1.999994696329894
4463,1.999995285917538
4464,1.9999958151117931
4465,1.999996289044042
4466,1.9999967126051654
4467,1.999997090157453
4468,1.9999974262363878
4469,1.9999977250890142
4470,1.9999979902841618
4471,1.999998225444012
4472,1.9999984338213384
4473,1.9999986182374676
4474,1.9999987812006224
4475,1.9999989253893926
4476,1.9999990526825406
4477,1.9999991651935434
4478,1.9999992644051798
4479,1.9999993519807853
4480,1.9999994291684544
4481,1.9999994972696868
4482,1.999999557252923
4483,1.9999996101924955
4484,1.9999996568033584
4485,1.9999996978746193
4486,1.9999997340555353
4487,1.999999765929768
4488,1.9999997939731815
4489,1.999999818633929
4490,1.9999998404282622
4491,1.9999998595860065
4492,1.9999998764608198
4493,1.9999998913159085
4494,1.9999999043207939
4495,1.999999915809694
4496,1.9999999259766648
4497,1.9999999348968607
4498,1.999999942713079
4499,1.9999999496823806
4500,1.998791773222194
4501,1.9992001110293294
4502,1.998805686464557
4503,1.9984048686508322
4504,1.9981671145633488
4505,1.998232175506206
4506,1.997492175222437
4507,1.9977519740810772
4508,1.997262634198188
4509,1.9973833865236144
4510,1.9973707765098434
4511,1.997299773270561
4512,1.9972467767501054
4513,1.9972095762435835
4514,1.9972581527740734
4515,1.9973516181074378
4516,1.9974201777880034
4517,1.997589124920107
4518,1.9977067398694346
4519,1.997835229834744
4520,1.9980094123491783
4521,1.9981525538567098
4522,1.998304113283539
4523,1.9984527068255475
4524,1.9985877777524135
4525,1.9987232604973548
4526,1.9988442893145815
4527,1.9989612610690175
4528,1.9990683110412037
4529,1.9991639947474993
4530,1.9992532511690144
4531,1.9993339892416677
4532,1.9994068456998375
4533,1.9994718484946088
4534,1.9995310176133598
4535,1.9995839154806958
4536,1.9996311779745684
4537,1.9996732648862843
4538,1.999710870761254
4539,1.9997445333207768
4540,1.999774111450234
4541,1.999800406014194
4542,1.9998237798492728
4543,1.9998444527403
4544,1.9998627770597701
4545,1.999878996009579
4546,1.9998933011986393
4547,1.9999059281880818
4548,1.999917102418998
4549,1.9999269446770385
4550,1.9999356432298012
4551,1.9999433147689496
4552,1.9999500635661456
4553,1.9999560227116941
4554,1.999961280111717
4555,1.9999659002457344
4556,1.9999699853940713
4557,1.9999735772834595
4558,1.9999767377172697
4559,1.9999795218139582
4560,1.9999819764787656
4561,1.9999841354371308
4562,1.9999860366097244
4563,1.9999877103580461
4564,1.999989183251985
4565,1.9999904815409286
4566,1.9999916229873418
4567,1.9999926268808128
4568,1.9999935119898467
4569,1.9999942899878014
4570,1.9999949754811353
4571,1.999995578509373
4572,1.9999961096234602
4573,1.9999965760953984
4574,1.99999698667866
4575,1.9999973484790623
4576,1.9999976666424437
4577,1.9999979466618916
4578,1.999998193549312
4579,1.999998410021458
4580,1.9999986006442714
4581,1.9999987687780694
4582,1.9999989167250463
4583,1.9999990469087727
4584,1.9999991613580426
4585,1.9999992621568956
4586,1.9999993502160391
4587,1.999999428335599
4588,1.9999994970584498
4589,1.999999557084141
4590,1.9999996108845497
4591,1.99999965724322
4592,1.9999996987599198
4593,1.9999997348177416
4594,1.9999997671699563
4595,1.9999997948648272
4596,1.9999998189363644
4597,1.9999998412902358
4598,1.9999998605728224
4599,1.9999998773308083
4600,2.0003122860344305
4601,2.0003829055286655
4602,2.000488784606047
4603,2.0006207263748097
4604,2.0007746653535046
4605,2.000952936105612
4606,2.0011914020258432
4607,2.0014745636324247
4608,2.00182648515372
4609,2.0022226207125793
4610,2.0026991842488795
4611,2.003262144620395
4612,2.003921395306693
4613,2.004641535182397
4614,2.0054387404939438
4615,2.006350064112597
4616,2.007284841070952
4617,2.0082103709759593
4618,2.0093124964074027
4619,2.01035349962471
4620,2.0113769967889663
4621,2.0123276876297274
4622,2.013222713190836
4623,2.0139183565271166
4624,2.014554994492363
4625,2.015010668355014
4626,2.015259064456506
4627,2.0152760873579783
4628,2.015155465497064
4629,2.0147575050794972
4630,2.01423291789058
4631,2.013503937208553
4632,2.012672347710535
4633,2.011735058915626
4634,2.0107405214483998
4635,2.0097077525797706
4636,2.0086734458596647
4637,2.007661657586087
4638,2.0066856089727847
4639,2.0057782160394937
4640,2.004934473248358
4641,2.0041795140377117
4642,2.0035046323189953
4643,2.002914862892094
4644,2.0024038437835814
4645,2.001971025336027
4646,2.00160449798464
4647,2.0012993663475305
4648,2.001046394203847
4649,2.0008387917366157
4650,2.000669435904238
4651,2.0005323294015427
4652,2.0004217651992198
4653,2.0003331016666808
4654,2.0002623716175236
4655,2.0002061427543074
4656,2.000161581914638
4657,2.000126411816888
4658,2.0000986849448164
4659,2.000076900365697
4660,2.0000598225742916
4661,2.000046456786673
4662,2.0000360241910204
4663,2.000027887539941
4664,2.0000215516741284
4665,2.000016629325516
4666,2.000012808684964
4667,2.0000098478326485
4668,2.000007555993309
4669,2.000005785289212
4670,2.000004418973195
4671,2.0000033660582814
4672,2.0000025567705784
4673,2.000001935131033
4674,2.000001458894768
4675,2.0000010949272897
4676,2.0000008173159998
4677,2.000000606331976
4678,2.0000004465019114
4679,2.000000325846118
4680,2.0000002352416466
4681,2.00000016758025
4682,2.000000117443271
4683,2.0000000805639484
4684,2.0000000537035634
4685,2.0000000344598488
4686,2.0000000208969735
4687,2.0000000115988747
4688,2.00000000544399
4689,2.0000000016010056
4690,1.9999999994338717
4691,1.999999998470589
4692,1.9999999983656276
4693,1.99999999883379
4694,1.99999999967692
4695,2.0000000007695498
4696,2.000000001993545
4697,2.000000003267491
4698,2.00000000455319
4699,2.000000005807042
4700,2.0002877570336626
4701,2.000345057129566
4702,2.000443123189888
4703,2.0005828813643625
4704,2.000699212279961
4705,2.000890813492099
4706,2.0011223163450156
4707,2.001375078560407
4708,2.0017234446263372
4709,2.0020489823314844
4710,2.002504405564693
4711,2.0030826110937374
4712,2.0036764495681947
4713,2.0043991472500884
4714,2.005150203235153
4715,2.00601841268678
4716,2.006944429723637
4717,2.0079364829042614
4718,2.0089558229184545
4719,2.009969625642338
4720,2.0109933876485817
4721,2.0120105660254373
4722,2.012916264529345
4723,2.013713482476837
4724,2.0143923656822724
4725,2.0148744871203066
4726,2.015230409517465
4727,2.0153586372060217
4728,2.015251344266891
4729,2.014939147686092
4730,2.0144590991689584
4731,2.0137839362185375
4732,2.013009101569247
4733,2.012108119847635
4734,2.0111349299330774
4735,2.010109630399253
4736,2.009063557313343
4737,2.0080366865513923
4738,2.0070538648916396
4739,2.0061147781230795
4740,2.005248126562898
4741,2.004456699959284
4742,2.0037519206049024
4743,2.00313086625909
4744,2.0025922209019784
4745,2.0021301098426645
4746,2.001738733375791
4747,2.001411317473775
4748,2.0011385081973474
4749,2.0009146945881517
4750,2.000731541012658
4751,2.000582734762321
4752,2.000462449218555
4753,2.0003659144943016
4754,2.0002887462231733
4755,2.000227254184501
4756,2.000178468922995
4757,2.0001398713858736
4758,2.000109384377013
4759,2.000085424439521
4760,2.0000665943769187
4761,2.0000518550275195
4762,2.00004030709319
4763,2.0000312983382593
4764,2.0000242714234244
4765,2.0000188001945336
4766,2.000014542400225
4767,2.0000112364973566
4768,2.0000086701511135
4769,2.0000066820511684
4770,2.0000051420911746
4771,2.0000039517668853
4772,2.000003031990083
4773,2.000002322504225
4774,2.000001775890521
4775,2.0000013550326523
4776,2.0000010318273667
4777,2.0000007839757368
4778,2.000000594180967
4779,2.0000004491710444
4780,2.0000003387017
4781,2.000000254708232
4782,2.0000001910879903
4783,2.0000001430950096
4784,2.000000107053473
4785,2.000000080109727
4786,2.0000000601282837
4787,2.0000000454576936
4788,2.0000000347532247
4789,2.0000000270835625
4790,2.000000021666129
4791,2.000000017928049
4792,2.00000001545158
4793,2.0000000138955625
4794,2.0000000130184823
4795,2.000000012605046
4796,2.0000000125417223
4797,2.000000012700358
4798,2.0000000130198323
4799,2.0000000134351588
4800,1.9999503980606186
4801,1.9999439053488686
4802,1.9999369964936966
4803,1.9999294099472977
4804,1.999921814789734
4805,1.9999132208547459
4806,1.9999033969763482
4807,1.9998926399218189
4808,1.9998823342405805
4809,1.999871543800886
4810,1.9998609115272288
4811,1.9998496675436557
4812,1.9998392231047752
4813,1.9998297451087
4814,1.999823476989471
4815,1.9998198234629283
4816,1.9998218046481624
4817,1.9998292463317935
4818,1.999847038672429
4819,1.9998764479980942
4820,1.9999194571446992
4821,1.999982701365889
4822,2.000072110180359
4823,2.0001903057821275
4824,2.0003478152320886
4825,2.0005432652458306
4826,2.0007898542260536
4827,2.0010954430989187
4828,2.001463434410235
4829,2.0019007048486768
4830,2.002404805249734
4831,2.00298163514036
4832,2.003626853596712
4833,2.0043281824028716
4834,2.005080907362021
4835,2.0058666727878287
4836,2.006670651126992
4837,2.0074666058016923
4838,2.008218015544667
4839,2.0089226078487687
4840,2.009541219221205
4841,2.0100517934010966
4842,2.0104287933682907
4843,2.010656812862585
4844,2.0107238489338233
4845,2.010625957333532
4846,2.010367598120259
4847,2.0099643569912597
4848,2.009435923673985
4849,2.0087978233513337
4850,2.0080813420359975
4851,2.0073140008076216
4852,2.0065176807991065
4853,2.005719987645487
4854,2.0049396451059995
4855,2.0041953345484065
4856,2.003501860618585
4857,2.0028701975543886
4858,2.0023067694771797
4859,2.001813995133885
4860,2.00139155984548
4861,2.001036058990642
4862,2.000742517119046
4863,2.000504533085229
4864,2.0003152528821397
4865,2.0001677062532885
4866,2.000055289835778
4867,1.999971833923713
4868,1.9999118330031638
4869,1.9998706096792886
4870,1.9998440659728218
4871,1.9998288272767226
4872,1.999822135811049
4873,1.9998217295059555
4874,1.9998258399256301
4875,1.999833060243917
4876,1.9998423063731974
4877,1.9998527560081745
4878,1.9998637915245394
4879,1.9998749649974683
4880,1.9998859526164965
4881,1.9998965329247764
4882,1.9999065609487288
4883,1.9999159485535971
4884,1.9999246504928188
4885,1.9999326544935336
4886,1.9999399679667256
4887,1.9999466140269815
4888,1.9999526274312498
4889,1.99995804694592
4890,1.9999629156968288
4891,1.9999672779437532
4892,1.9999711768745885
4893,1.9999746545796655
4894,1.9999777514669064
4895,1.9999805047814114
4896,1.9999829492615195
4897,1.9999851177149088
4898,1.9999870388035053
4899,1.9999887394561278
4900,1.9999847997335347
4901,1.999984144031404
4902,1.9999830955592897
4903,1.9999830808596064
4904,1.9999832747935768
4905,1.9999839070740832
4906,1.9999853553982614
4907,1.9999888603580311
4908,1.999992359415206
4909,2.0000010118911935
4910,2.000011137035028
4911,2.0000261474709404
4912,2.000046526096605
4913,2.0000743884121674
4914,2.0001091538892766
4915,2.00015756905206
4916,2.0002199433299963
4917,2.00029872972712
4918,2.0004017692058045
4919,2.0005329869979858
4920,2.0006976783282973
4921,2.0008953685822393
4922,2.0011408332396265
4923,2.001437995759929
4924,2.001804873982443
4925,2.0022315158871007
4926,2.00273333595589
4927,2.0033157726637896
4928,2.0039752595312263
4929,2.0047185473240896
4930,2.005533746874315
4931,2.0064114351832156
4932,2.007341420167239
4933,2.0082953616460446
4934,2.0092572899780783
4935,2.0102003712250878
4936,2.0111065586055688
4937,2.011911886879263
4938,2.0126211479854037
4939,2.0131941421049806
4940,2.0135990901042686
4941,2.0138337046314745
4942,2.013872734264125
4943,2.0137144186244322
4944,2.0133728936843966
4945,2.0128617891485767
4946,2.0122010445955043
4947,2.0114272012461045
4948,2.010557940020487
4949,2.0096275197667546
4950,2.0086706554665206
4951,2.0077080119922517
4952,2.0067673871748073
4953,2.0058683948703693
4954,2.005028099054729
4955,2.0042577126989656
4956,2.003564998284733
4957,2.0029522267687603
4958,2.0024186962734696
4959,2.001961545915207
4960,2.0015746985355203
4961,2.001251440957403
4962,2.0009846362560397
4963,2.0007667556754103
4964,2.000590474079317
4965,2.000449355039779
4966,2.0003373769123227
4967,2.0002493395190446
4968,2.0001807688274975
4969,2.0001278370038773
4970,2.0000873944525037
4971,2.000056847433145
4972,2.0000340562838654
4973,2.0000173123436
4974,2.0000052351036914
4975,1.9999967341364866
4976,1.9999909508509552
4977,1.9999872011707545
4978,1.9999849683365234
4979,1.9999838432663715
4980,1.9999835132178716
4981,1.9999837424087312
4982,1.999984351064916
4983,1.999985205288367
4984,1.9999862065303995
4985,1.9999872816162414
4986,1.999988379868863
4987,1.9999894645468135
4988,1.9999905111414227
4989,1.9999915036933118
4990,1.999992432949321
4991,1.9999932940169087
4992,1.9999940853207037
4993,1.9999948076606353
4994,1.9999954638657904
4995,1.9999960568513842
4996,1.999996590914971
4997,1.9999970703257937
4998,1.9999974994941605
4999,1.9999978828719678
5000,2.000129212256462
5001,2.0001755183818557
5002,2.000250457990233
5003,2.000335117304446
5004,2.0004196959525804
5005,2.0005668199800812
5006,2.000733346435548
5007,2.0009337783279824
5008,2.001181054499426
5009,2.0015036067824914
5010,2.0018565261458887
5011,2.002248566212201
5012,2.002780864854754
5013,2.003372088542243
5014,2.0040286314205322
5015,2.0047876803251143
5016,2.0055995810916802
5017,2.0065152850856602
5018,2.0074007343251417
5019,2.0083935692108565
5020,2.0094008790836826
5021,2.010337922540018
5022,2.0112821284911466
5023,2.0121015387571233
5024,2.012828728141352
5025,2.013498086407717
5026,2.013869610150794
5027,2.0141688571741536
5028,2.014194158087428
5029,2.014076911010892
5030,2.013773208844785
5031,2.0132641366117854
5032,2.012598255965518
5033,2.0118540550959523
5034,2.0109587668987694
5035,2.010035632057254
5036,2.0090574828802823
5037,2.008079110634985
5038,2.0071117984983036
5039,2.006193747170011
5040,2.0053228218378694
5041,2.0045249757462638
5042,2.0038054590460876
5043,2.003168621856249
5044,2.002608714686319
5045,2.0021286033435683
5046,2.0017204658806316
5047,2.0013791357090875
5048,2.0010951363217755
5049,2.0008621539491473
5050,2.000672652760088
5051,2.000519955972837
5052,2.0003984752623607
5053,2.0003016424271802
5054,2.000225793230809
5055,2.000166505979439
5056,2.000120635776268
5057,2.000085417800807
5058,2.0000586511224854
5059,2.000038470336666
5060,2.0000234538048973
5061,2.0000124255402962
5062,2.0000044641664707
5063,1.9999988386648722
5064,1.9999949859200619
5065,1.9999924624399734
5066,1.9999909226230463
5067,1.999990101442918
5068,1.999989801068305
5069,1.999989864245536
5070,1.9999901774443118
5071,1.9999906534789755
5072,1.9999912296471498
5073,1.9999918588031245
5074,1.9999925072425444
5075,1.9999931519845155
5076,1.999993777109481
5077,1.9999943719758162
5078,1.9999949300531334
5079,1.9999954482743296
5080,1.999995925304352
5081,1.9999963612286775
5082,1.9999967575243605
5083,1.99999711602412
5084,1.9999974390032824
5085,1.9999977292248086
5086,1.9999979891303694
5087,1.9999982214153236
5088,1.9999984284644825
5089,1.9999986128117884
5090,1.9999987766921463
5091,1.9999989221887475
5092,1.9999990511641967
5093,1.9999991654299623
5094,1.9999992665464776
5095,1.9999993559990594
5096,1.9999994351120858
5097,1.999999504959143
5098,1.9999995666330017
5099,1.999999621030963
5100,1.999287388316327
5101,1.9991932459895572
5102,1.9990872804065736
5103,1.9989700848020506
5104,1.998833253093244
5105,1.9986855682377993
5106,1.9985076685170795
5107,1.998317164122828
5108,1.9981081771477465
5109,1.9978717143276454
5110,1.99760451870338
5111,1.9973120547181205
5112,1.9969876178699308
