,zrun,vrun,zrun2,vrun2,zrun_kd2,vrun_kd2,zrun2_kd2,vrun2_kd2,shapes,shapes_kd2
0,4.826534148496064,0.007087393667900557,5.826533730881142,0.008555816036839482,4.824486814571226,0.007084131642173842,5.289211186672214,0.007766518962488774,1.3332904733793105,1.3330264566446361
1,0.00040665058281564713,1.1737312315945228,1.0004062329675782,2887.51102183516,0.00040659343806030154,1.1736495023488989,0.992727151066848,2865.5497549988722,2.000603279024594,2.000597154254277
2,3.996217506896696,62.71511237090259,4.9962170892817745,78.4087241605266,3.9379724778611283,62.52332398322312,4.931094059303461,78.29114936553134,1.397321753407549,1.3964661387301618
3,293.06475744695354,6.965815970853953,294.06475702933864,6.989584823589806,154.97143512506398,6.866704573538012,155.89350076913797,6.907560827919057,1.0068061478610761,1.0067868131262663
4,15445.133248938659,0.19125661475941164,15446.133248521044,0.19126899772379305,3401.734826464638,0.035511513364186405,3402.5454254208435,0.0355199753981587,1.0001294822593352,1.0001294978651412
5,0.017711016735370518,0.0181544185407838,1.0177105991204527,1.043189357555424,0.01770606653127598,0.018152736555695038,0.5935972419325294,0.6085718888469493,1.9998495120582722,1.9994735179756151
6,0.11505258761574527,14.530490426689063,1.1150521700008227,140.82477601953994,0.11503683796642919,14.529668453902325,1.1144470719153352,140.75966230119676,2.017731210736615,2.0176605345227094
7,0.004541314949501892,85.79022517003965,1.0045408973345755,18976.836165987435,0.00454116743612922,85.78883341175909,1.0045162084875097,18976.678328073576,2.0078698440911813,2.0078697671950008
8,43.06030689103435,1.9462638460105566,44.06030647341943,1.991462386702494,40.54956182229281,1.943248916308566,41.42897950301089,1.985393082071129,1.0453996269421109,1.0453355433855307
9,7.578788652135873,0.041386569842662244,8.578788234520951,0.046847409886981134,7.570052527042236,0.04139226019823888,8.229536028615607,0.04499824742171675,1.2299338551915722,1.2300254425553407
10,20002.978190545018,0.14781650814892677,20003.978190127404,0.14782389787084768,3596.7023208357073,0.026098189181084298,3597.4710954722827,0.026103767520383254,1.0000999800986166,1.0001000023468798
11,2.5926364373233417,0.048611965249205275,3.59263601970842,0.06736196978061985,2.590602239793664,0.04859760480549913,3.235178738726001,0.06068933910606118,1.5165702321827785,1.5163795307785366
12,0.0019632281004250195,0.09144617072681946,1.001962810485534,46.670920312187846,0.001962298584477497,0.09143101288914042,0.7627715166661615,35.54044879991746,2.00017048991652,1.999659722215042
13,0.005324976093405771,3.11529848882925,1.0053245584784827,588.1502607475267,0.004051828283312339,2.729004986780218,0.1369014371670542,92.2064506694372,2.003897569988431,1.9249252377892778
14,1.328540875559395e-07,0.023120555383867276,0.9999997153899012,174029.63829613893,9.180066440775475e-08,0.018289367435393035,0.0010155093342353824,202.31905147663974,2.0000002636209757,1.9626942224895905
15,0.0019242785209577773,0.03740682183592632,1.001923860906055,19.476799719939603,0.0019228186658260503,0.037396729909649755,0.472451107045359,9.188659731519726,2.000073994686014,1.9990800183896833
16,97.1323751270866,22.724934420662432,98.13237470947169,22.958892716242644,96.118426422851,22.705939421758284,97.11751467111934,22.94195282820309,1.0204177327436963,1.0204157725065262
17,14.448139881093342,0.05687211100463218,15.44813946347842,0.06080840230040044,14.425593571676337,0.05686056954268434,15.18731877585089,0.05986301992569132,1.1289455446283723,1.1289149255770385
18,145.63120416055662,20.222021266740004,146.6312037429417,20.360878958251142,11.091157354437765,18.641528451035278,11.649227670740647,19.579508442354747,1.0136394000739744,1.0126964201357944
19,4.720569914809433e-08,0.0011419963273681503,0.999999631192456,24191.90747728585,4.72056271512789e-08,0.0011419947172317307,0.9870656928352011,23879.013473670984,2.000000094529915,2.0000000940993687
20,35.97518840223381,63.269026054292425,36.97518798461889,65.02771037096092,34.533347275948174,63.19011161079581,35.52998705818415,65.01379173574892,1.0542871993954597,1.0542409325641062
21,19.208468621029,109.04977274399772,20.208468203414075,114.7269419840172,15.026237641700636,107.38731134204122,16.00361530675348,114.3722906907312,1.0996071945106265,1.0987494486898777
22,0.00022660459895762188,0.031679161212353715,1.0002261869843434,139.8309071044963,0.00022652584284096414,0.03167369539968207,0.6279686478430807,87.80493838089849,2.00005555682643,1.9998722008134415
23,1.8866669648058072,639.2826341939743,2.8866665471908854,978.1248247582257,1.8462965417671569,634.7176904556404,2.8448701104422938,978.0061573521256,1.6196350488497524,1.6200393207575647
24,178.48202556883527,12.142126073982233,179.48202515122034,12.210156011252113,151.71974341455524,12.006773463444967,152.70429605208886,12.084688836986055,1.0111551178028777,1.0111449449652337
25,0.0017229577856434327,1.9985137286693322,1.001722540170727,1161.9299471699424,0.001718307983224492,1.9958994457072319,0.9211318151145073,1069.9400207408269,2.0018448359803847,2.00156057412175
26,17.963019843327615,133.67828524795095,18.96301942571269,141.120142496222,17.839821818748682,133.6230534926018,18.839324641260106,141.10948583903308,1.1056857422328887,1.1056637454616458
27,0.021956425083682177,0.0035000012955757036,1.021956007468759,0.16290663605435074,0.02191710791274933,0.003495562190145856,0.10051792444412293,0.016031615919289317,1.9995248487417567,1.998170791797386
28,1.5370296144018265,0.004070703120795875,2.5370291967869045,0.006719124063806609,1.5365992006292126,0.004082399619624911,1.940726575595787,0.005156075462465377,1.6762417328890986,1.6825024899851573
29,22.25482321251957,89.9031634487553,23.25482279490465,93.94287767363744,20.524208206890872,89.5377528315612,21.51680533909981,93.86800108226845,1.0866010263339418,1.0863883587217824
30,5.418184577735812,8.360967443189978,6.41818416012089,9.904097587903347,5.41610805938011,8.36043979155472,6.414988783499068,9.902337047182396,1.3055691070497573,1.305549947564728
31,14.731065775211553,174.11943040259155,15.731065357596632,185.93930551174458,10.158223539647183,168.6991339106263,11.129541298438475,184.82995284964255,1.126700097805121,1.1249203772918528
32,146.83428366023747,3.5658430152492095,147.83428324262255,3.5901278173894986,144.66633073230588,3.536549052336854,145.66085744312093,3.560861499323326,1.0135415275712156,1.0135401873467356
33,1.707097507675897,646.4136631440873,2.707097090060975,1025.0759189821538,1.6933674535443526,644.614958102807,2.692825254684698,1025.0790134731335,1.656886059163375,1.6570899152408793
34,0.3320831751163231,0.7234039442879298,1.332082757501401,2.901784833142813,0.33195148952605613,0.7233253709864815,1.300751187565864,2.83434888829843,1.9613663750452865,1.9609134003632045
35,0.0012789228191404194,112.32891037552686,1.0012785052041762,87943.1673192098,0.0012789203687224217,112.3288027536292,1.0012773950494296,87943.15405464165,2.0022435218448593,2.0022435204652513
36,0.6840140509197917,34.86511400747268,1.6840136333048696,85.83643455329745,0.6724559286984699,34.636987957251996,1.6465900235764912,84.81287231348635,1.9159586311738706,1.9095438940709164
37,364.55867502822935,7.50851965179006,365.5586746106144,7.529115832954967,315.24558833698796,6.6849502764009125,316.23462863780884,6.70592340172591,1.0054721650252771,1.005469987790093
38,52722.27473656105,0.056246931372707684,52723.27473614344,0.05624799822553534,3370.4073757709066,0.01052971603339285,3370.916870900319,0.010531307781343462,1.0000379338871914,1.0000379782077937
39,333.79603530255184,0.0368733098461913,334.79603488493694,0.0369837763902709,324.5258560409089,0.03257594402276159,325.21594780730584,0.032645215516339844,1.005973788965953,1.005973261037675
40,1.5136769803004993e-06,0.10723260597056518,1.0000010960766033,70842.54097887354,1.5136559748943723e-06,0.10723182034084995,0.9921278715898562,70285.24278041275,2.000002985903366,2.0000029630945124
41,7.4618692001319955,292.86839520820416,8.461868782517072,332.1170425708263,7.432269062725549,292.7128020617057,8.432002221181207,332.0863354545133,1.2339291765676084,1.2338964021360947
42,0.0003989874633523621,23.120451826075403,1.000398569848156,57970.91153368462,0.0003980443859367885,23.09311587068604,0.9937848656949994,57655.854132994355,2.00076620636805,2.0007590541460027
43,539.3047541076097,2.0542598600891235,540.3047536899948,2.058068947597723,360.57856078508564,1.7561622851574277,361.4986016204934,1.7606432532228329,1.0037032019549377,1.0037000176413506
44,0.00030058849820840326,11.643636957517272,1.0003001708831007,38747.76349636024,0.00030058828012341173,11.643632725659486,1.000296123830044,38747.62075885302,2.0005791763611156,2.000579172959225
45,24002.59592769406,0.09514798708402745,24003.595927276445,0.09515195115306546,7443.626899086472,0.008526754470155709,7444.467299301815,0.008527717157618426,1.0000833214101492,1.000083332001553
46,3.0101245890087076e-10,7.548436910402775e-05,0.9999997032691853,250768.18076273668,2.999326826561872e-10,7.521516279665133e-05,0.027022808086185315,6776.603641274324,2.0000000006106724,1.9999999786051144
47,1.4163635610773246,602.263369732213,2.4163631434624033,1027.4812550045124,1.4109288617856972,601.4047731755578,2.4106365438325796,1027.527583507995,1.745480125368609,1.7456020908775722
48,9.307088837439867,103.71659364350127,10.307088419824945,114.8604166091402,5.490895062237399,96.54380687641311,6.390849455361776,112.36727866790935,1.1973936618229482,1.1892402935416717
49,2.9630869198112543e-05,2.482190836968781,1.0000292132561717,83772.88338216167,2.3214479701603247e-05,2.1909478877832793,0.12170179997061326,11486.033932805452,2.000058417676252,1.9708514241722686
50,0.009777102560541753,2.136421664893036,1.009776684945624,220.64909036835996,0.009774340548662405,2.1361638631679316,1.0013053549924393,218.8334143549047,2.003434209508117,2.003309408921043
51,0.011257732000769039,145.98414276079023,1.0112573143858568,13113.434583547869,0.011246792636650812,145.91324439638214,1.0108162509910288,13114.09247379974,2.017734161758199,2.017734723377859
52,0.0007127589740734114,20.735957441362093,1.0007123413591061,29113.24764229625,0.0007125431100987641,20.732820286073153,0.9997641853192325,29090.073132280977,2.001349274051593,2.0013480939848463
53,1.7829037932811407,0.037634648463147596,2.782903375666219,0.058743265141278325,1.7811864667873674,0.03761554391983814,2.285766275213349,0.048271387257309895,1.6364883632654117,1.6361581310105136
54,0.5147406176992758,0.00770691329756377,1.5147402000843542,0.022679328168356702,0.5144122433743064,0.007696180365667493,0.7836736435137649,0.011724630947232606,1.9216120952848856,1.9170731408225024
55,1.4232404319953509,565.4810379994498,2.423240014380429,962.8002745344455,1.4228460841617372,565.4230630581153,2.4228233616580908,962.8028088537484,1.7558512588541477,1.7558588145958585
56,821.419265405316,0.030881961705649937,822.419264987701,0.030919557547517174,729.9852041797332,0.019015734657015757,730.4954920516261,0.019029027390505493,1.0024318672460448,1.0024315305910636
57,0.009705588706374032,5.812460661718592,1.0097051710914466,604.6899126323539,0.009699650984198685,5.810789967475318,1.0029357087401727,600.830768433221,2.0071571243172226,2.00704376047254
58,0.0013403097953932372,0.021183372716986996,1.0013398921804977,15.826009945874997,0.001338705815325838,0.021172939363699433,0.26312194445505943,4.1615304209683135,2.0000429752988254,1.9985688089410474
59,14.542030999689334,173.16742264765912,15.542030582074412,185.07548076788035,3.914698082543962,145.76734383497455,4.761417595124921,177.29571504514044,1.128365738628293,1.1174618168730508
60,2.4095663549377985e-07,0.0027691073857612912,0.9999998233665327,11492.137956564948,2.4095383644376876e-07,0.002769080082452766,0.9240978117025318,10619.880066615318,2.000000447074808,2.000000405177398
61,4.225085487951893,269.3987835477881,5.225085070336971,333.1604924672985,1.054937960749465,173.29534978958665,1.8143442743109401,298.04352232436014,1.3894996046143253,1.3091638641839947
62,0.9249122376515274,0.05238256781703169,1.9249118200366055,0.10901772065520347,0.9248019683995888,0.052375302637951926,1.8287770230355045,0.10357109231133413,1.8183518500090592,1.8180999126715207
63,112419.42222141278,0.010537924575738473,112420.42222099517,0.010538018313279253,16003.90214814862,0.00045027449126080365,16004.404275595889,0.0004502886187641322,1.000017790386947,1.0000178000227016
64,151786.2242306717,0.019434162605892577,151787.2242302541,0.01943429064224494,16141.23056418448,0.0008235226494002617,16141.873459712291,0.0008235554498132318,1.0000131763299471,1.0000131865416475
65,6.708704586644158e-05,0.0061068330561977685,1.0000666694298364,91.03456735051599,6.704655799399778e-05,0.006104293651059774,0.242059250606193,22.038428084376086,2.0000109235450325,1.999765793709841
66,2118.0224301348726,0.50665587399023,2119.0224297172576,0.5068950856506896,1847.1814717028885,0.15957545717489335,1848.1555457398224,0.15965960608616553,1.0009439328786012,1.000943881414456
67,0.007549009588396954,0.03959866331506493,1.007548591973476,5.285140653212195,0.007527773157203545,0.039564394023236395,0.20848195400976025,1.0957373452842705,2.0000296748234563,1.9956207706933404
68,0.0005455075838754912,0.250885665937766,1.0005450899688053,460.16302727494264,0.0005403027431763219,0.24975064495078242,0.29185286939552924,134.9066672024704,2.0003432941618042,1.9980051111855015
69,2.9746230216362415,0.008917534005149884,3.9746226040213197,0.011915403051476762,2.9734560550128895,0.008906716990629355,3.45060637116207,0.010335977335932037,1.4735928177473487,1.4712555824526208
70,7.598347423323247,18.24083444268062,8.598347005708325,20.641465238930532,7.347477025373489,18.161196054996857,8.312549689303292,20.546623569287906,1.231375095431581,1.230477672737805
71,7.143174210275032e-11,2.352683445456533e-05,0.9999998977816964,329361.02854456875,6.276614875980052e-11,2.0677303672734855e-05,0.0007179047513002644,236.50223638130922,2.000000000112781,1.9999997276643962
72,238.56346267240693,0.033950404288272645,239.56346225479203,0.03409271606447577,232.56047014017918,0.032252079461409525,233.1797873362292,0.03233796795057014,1.008348596993496,1.0083473401163494
73,13454.4230159092,0.1685843684027405,13455.423015491584,0.16859689843080636,5111.592361988937,0.021541857799467674,5112.469338016684,0.021545553652255887,1.0001486408657847,1.00014864680574
74,27.19728916487294,27.377800558991186,28.197288747258018,28.384437248392324,25.63479895072628,27.311831090996453,26.62026383762562,28.36176522891721,1.071363329885202,1.0712258762943
75,8.359950607462648e-11,1.668829845169334e-05,1.0000005429133059,199622.08266033928,2.58158207469526e-11,5.158027078301225e-06,4.4264166087532496e-05,8.844025123813532,2.0000000006026646,1.9999972276440228
76,5.902892724581497e-06,0.09696413479390716,1.0000054852797513,16426.635413095184,5.900639795891234e-06,0.096944524448108,0.8064420375438467,13249.434388299775,2.000011132642933,2.0000082595429363
77,11099.961097929954,0.1018504005919625,11100.96109751234,0.10185957633205377,1656.686963637082,0.035028748046741644,1657.1912770691706,0.0350394111765525,1.0001801682530218,1.0001801771938463
78,29012.405726677833,0.08623351228631214,29013.40572626022,0.08623648458295952,2613.3056418601764,0.020226332717180693,2613.865167739491,0.020230663307685533,1.000068933923381,1.00006897868804
79,0.13531407887793548,47.51036371162376,1.1353136612630144,398.6219720864274,0.13531004560623455,47.509700579104944,1.1352708025195362,398.6132416277758,2.054172838387597,2.0541674860533226
80,241.17954632545167,2.709464245998789,242.17954590783674,2.720698461983381,191.47471934182795,2.635464021345969,192.40339409878763,2.6482463297254375,1.0082640757380212,1.008255525037635
81,65529.68210739899,0.04108871648511241,65530.68210698138,0.041089343509355544,4590.087664366714,0.00580172199855652,4590.597508976797,0.005802366425614662,1.0000305200723396,1.0000305539120249
82,15278.348514532987,0.19450308277402495,15279.348514115372,0.1945158134039986,964.6689528859531,0.10012044993127285,965.1756848038525,0.1001730423024307,1.000130895600401,1.0001309601530002
83,70617.42884494664,0.04184538630590558,70618.42884452903,0.041845978870227375,4379.1080692905,0.006171019455020045,4379.608562391572,0.00617172474765383,1.000028321201387,1.0000283574476023
84,1.9641023681008892e-07,0.06106013647872878,0.9999997782040491,310880.5524982764,1.9640932455587554e-07,0.061059981199601265,0.9955463661098042,309496.7234139778,2.0000003916427143,2.0000003895713894
85,26993.048114284546,0.10533321568317659,26994.04811386693,0.10533711791649417,7886.864929348407,0.008932274742645692,7887.722476704917,0.008933245958542224,1.0000740904798424,1.0000741015627588
86,6.409417373224174,15.924149602889637,7.409416955609252,18.408641098052904,6.201370530614864,15.846208504535015,7.157415518240584,18.28916657950279,1.2671311063080253,1.2659195541091135
87,0.007733104512263507,0.18356812359657673,1.0077326868973395,23.921517952760045,0.007732102954407144,0.18356138948695383,0.9653933948910653,22.918597180179283,2.0003263827061923,2.000142926222616
88,0.00012031012459203507,7.298522422817389,1.0001198925096308,60671.5144360386,0.00012030958346804051,7.298506005910151,1.0000798788588696,60669.22344702751,2.0002349839555364,2.000234976562906
89,0.1610323417857234,0.5792997646121152,1.1610319241708014,4.176710795613143,0.16100347199858642,0.5792697237091099,1.1423599167850944,4.110063622592396,1.989986831275465,1.9896964275730564
90,9.05077088103987e-06,1.993310738638238,1.000008633151475,220238.47177123133,9.050768629351025e-06,1.993310489887664,1.0000005474363518,220236.71830855485,2.000017983861019,2.0000179837823757
91,6056.391275993237,0.4932899394686791,6057.391275575622,0.4933713889178616,383.65924242116927,0.4122811595590239,384.16823397435365,0.412828123126038,1.000330175045909,1.000329852167927
92,0.17569096108589033,643.3528940073753,1.1756905434709681,4305.195377862248,0.1756906669183513,643.3523553156081,1.1756900903471292,4305.197322163729,2.063387159388345,2.0633873089280024
93,0.0484972919383522,176.79866023616452,1.0484968743234329,3822.3338919176676,0.048497161407336405,176.79842151732956,1.0484957779101225,3822.3350217370044,2.060367435729296,2.060367456869074
94,0.00015708489719696558,11.11143236816651,1.000156667282081,70746.28665377725,0.00015708488755927292,11.111432029779808,1.000156308642153,70746.26347133119,2.000306335829255,2.0003063365789355
95,126.86143256516932,5.08822496303179,127.86143214755441,5.128333471466765,32.356459176701485,4.969869074072554,32.89178455543341,5.052093678124462,1.0156621569955964,1.0153229916030448
96,0.5104953966836772,0.8471123309823794,1.510494979068755,2.506504330829408,0.5101084769519861,0.8469159597741428,1.4622280882952219,2.4276881501889265,1.921693382603196,1.920975251600043
97,0.009799607796453442,0.00337265563112248,1.0097991901815353,0.34753481933238467,0.009759386922391517,0.0033630304556840217,0.04507462376509828,0.015532464662583349,1.9999346311431971,1.9971863301201582
98,9.556345057793824e-10,0.00013496538348582469,0.9999995827243745,141231.11540220788,-5.6652972286321085e-09,-0.0008632534790027927,-8.635041592950213e-05,-13.157702757014778,2.0000000025913174,1.9881539278530356
99,1236.015918389962,2.402105268994083,1237.015917972347,2.404048694018065,533.5339853670934,1.7513536595107293,534.4545189096187,1.7543753597821654,1.0016168025901506,1.0016153110154233
100,13192.309577019156,0.22640555225617326,13193.309576601541,0.22642271418346005,5826.399488394142,0.025591286223320277,5827.323261008824,0.02559534370846778,1.0001515919041721,1.000151596315171
101,0.0243180236973676,0.015465636851315776,1.0243176060824493,0.6514396199801029,0.024300853661014265,0.015460774316728085,0.3482133967138809,0.22154154811818721,1.9997767628668153,1.9986634209734486
102,0.021390599910136972,7.10048424825356,1.0213901822952165,339.0444836131563,0.02130024938578328,7.086956849047052,0.984246734526274,327.47570275204396,2.0102563662723263,2.008977063979307
103,0.0016683303583394228,0.2604753481234315,1.001667912743354,156.38976835235044,0.0016676689651931188,0.2604322778909583,0.9136404392721311,142.6790722494394,2.0004487722606297,2.0002219028789563
104,6.731958404844197e-10,0.00013609637473015486,0.999999682154083,202164.54601761253,6.698750490215322e-10,0.00013543196080816332,0.01995122855115783,4033.6388213919918,2.0000000016615367,1.9999999301848823
105,12.05177326289292,181.60939215526835,13.051772845277998,196.67848716319105,12.03762734205563,181.59072799629817,13.037539532419252,196.67466251436875,1.1537229201978552,1.153716377738482
106,302.90244784018705,9.770571512266038,303.90244742257215,9.802827994515019,286.9404314769193,8.910174145666026,287.93680383433525,8.941113846888364,1.006581124163908,1.0065800087664545
107,284.0481040952032,0.28125580628883035,285.0481036775883,0.28224597550586533,270.80919426454136,0.2598151139606295,271.70330076455406,0.26067292228883127,1.0070169214376297,1.0070157437441287
108,3.708233103114795,468.7076066287091,4.7082326854998735,595.1040325965696,3.7080340833726932,468.7019246157956,4.708030152409993,595.1031581610115,1.4071013997001194,1.4071010216226532
109,0.00030674472624403124,0.033715950165885473,1.0003063271118193,109.94900772537174,0.0003066398070427969,0.03371045429842698,0.6438141286975049,70.77772116882971,2.000060479246757,1.99984685866416
110,8.864066277415578e-05,0.16400577590956436,1.0000882230486652,1850.3950654905957,8.863896002266615e-05,0.1640041768452329,0.992815992760038,1836.9571304735073,2.000115066540805,2.000113820382474
111,170.3089075756685,7.224935734103475,171.30890715805361,7.267358252218991,162.96019380204592,7.1225579669228685,163.95318256707,7.165958872839676,1.0116911091374656,1.0116881765863914
112,0.006841723779895091,5.6986609884634944,1.0068413061649681,838.6259746230082,0.00683765572849236,5.697042338748613,1.000125527462217,833.2910723002781,2.0061473622827273,2.0060654712839168
113,44036.737093063304,0.05745016517978441,44037.737092645686,0.057451469775560114,4858.465441716753,0.0076958096886287665,4859.082170939707,0.007696786587772376,1.000045415692738,1.0000454435524908
114,0.0018633993921418493,13.085613257683208,1.0018629817772668,7035.524199488764,0.0018618507602048365,13.080202215570425,0.9977536602504008,7009.594923690324,2.0032175099216927,2.003203464544469
115,2193.997086282748,1.3246657286922932,2194.997085865133,1.325269496666177,900.350417740684,0.7144760097959024,901.262570999145,0.7151998519884378,1.0009111741029106,1.0009107103352943
116,121780.2744165078,0.023725421988163437,121781.2744160902,0.023725616809633445,13793.219344200801,0.0011721994641511458,13793.873656078256,0.00117225507002625,1.0000164228771808,1.0000164345256075
117,0.4583960278968622,0.5436451670507778,1.4583956102819404,1.7296173547041196,0.45825573909020745,0.54359673422837,1.4273146236102328,1.6931235158152276,1.9335392766727515,1.9332384191184095
118,1.5546510511616982,0.44029467546066464,2.5546506335467765,0.7235058122993993,1.5516190387011233,0.4400488271474279,2.387701771136983,0.6771670995002886,1.6791185706409792,1.6784194600916424
119,5.245652597010546e-06,0.02527298057652163,1.0000048280232778,4817.913906358016,5.2447031482706846e-06,0.025270245820644098,0.7292883493981402,3513.887314956883,2.000008713420562,2.000004866876963
120,8.156906919778246e-07,0.11228863914625331,1.0000003981009555,137660.86208020692,8.156747676394553e-07,0.1122874840609306,0.9894247677692553,136206.270253892,2.0000016194729455,2.0000016011553523
121,66.09621830300009,0.2634552532996038,67.09621788538517,0.2674411869890173,61.95473711485303,0.2631507115184448,62.53464277529025,0.26561384176907815,1.0298041556285962,1.029774252262198
122,13.256972964842992,34.76777856319903,14.25697254722807,37.390380580707756,13.237980943055522,34.76381328319406,14.237465774202052,37.388526538094915,1.1412301489331447,1.141217762239826
123,498.82898549463476,5.894921471269856,499.82898507701987,5.906738986251704,83.07778059999468,5.834113432773635,83.82938632445443,5.886894730270411,1.0040014720298323,1.0039647845298816
124,252362.72674591115,0.011412744784181163,252363.72674549354,0.01141279000773761,16862.591936807326,0.0004633353015747708,16863.105956141775,0.0004633494253408107,1.0000079250638183,1.0000079355614777
125,1.517081157101622,0.0040029578412912005,2.5170807394867003,0.006641548499976797,1.5166605689964898,0.003991126535442003,1.920315190692324,0.005053352787470169,1.68580031147367,1.6851575455982009
126,0.5739904625818343,0.018404224801106064,1.5739900449669126,0.05046785358065788,0.573452032949368,0.01839784784453831,0.8873505865574874,0.028468538148312565,1.9056142208276687,1.904510873474889
127,1145.9800976671856,0.01065140736647357,1146.9800972495707,0.010660701945794772,1078.4711567590998,0.005078067192915579,1078.9720103664997,0.005080425501949855,1.0017437052169522,1.001743650496891
128,0.004496475199438076,38.00962296932969,1.0044960575845385,8491.210276827014,0.004496453030278409,38.009529476300756,1.0044876284292732,8491.160001953336,2.007722451947711,2.007722386645431
129,1.1312268506989983e-07,0.03601544526957769,0.9999996963996779,318374.9953691653,1.1308453256236261e-07,0.036008452614518606,0.659328576683173,209943.84707565012,2.000000225567208,2.0000000682341343
130,0.000180603370194831,0.03335032990961716,1.0001801857563521,184.69389097253512,0.00018048096465711838,0.03333884119768428,0.4745131015941363,87.65310497050021,2.000056494965397,1.9997604759339906
131,2596.7881006143643,1.1504153274785671,2597.7881001967494,1.1508583420036167,395.53769719046875,0.9513938343852222,396.2713997729267,0.9531586222124793,1.0007698859096537,1.000768668847957
132,0.010615722147922007,358.44543293569285,1.010615304533004,34123.95645977594,0.010606118686415589,358.2830738538187,1.0104424244600965,34133.5438996692,2.0130800473254724,2.0130855822557163
133,0.005113223967595463,0.004574625928532331,1.005112806352654,0.8992399187245071,0.005017494878045209,0.0045182641248578004,0.01381399806651571,0.012439532755260059,1.99994199629606,1.9847330407584822
134,24.21750744135258,0.02837240680302831,25.21750702373766,0.02954397225100008,24.138155055860473,0.0283660894503215,24.68395411408661,0.029007488300884645,1.0791827181816702,1.0791733438107294
135,23.50442839191549,4.717019414372851,24.50442797430057,4.917705743171113,16.390382871490914,4.625843572874808,16.979880198931333,4.79221689342184,1.081621644765937,1.0801867702171555
136,3.01915725292888,0.00961252756323097,4.019156835313958,0.012796370849158169,3.0183005522299036,0.009615363046815123,3.5908974751510097,0.011439478040700689,1.4690096030585271,1.4691317623305649
137,0.026848213662402382,0.22479094208484537,1.0268477960474804,8.597446606829704,0.026824023275505142,0.2247424937390251,0.8258535786855448,6.9193346140053364,2.000083674867296,1.998600473800688
138,0.03685954830803768,785.6982352215304,1.0368591306931132,22101.692140955045,0.03685954075769368,785.6981539636708,1.0368591064207973,22101.693865114106,2.013263984258413,2.0132639899850164
139,59131.83633710485,0.05018978560851161,59132.83633668723,0.05019063438588362,11259.796331697215,0.003020572768950423,11260.578000895746,0.0030207824609045095,1.0000338221334837,1.0000338339092094
140,5578.358309021804,0.19865996697951457,5579.35830860419,0.19869557958684653,2304.0092765264826,0.051961902923987904,2304.809307696075,0.051979945881711224,1.0003584788199054,1.0003584379059314
141,0.005305087637662098,13.32752450354241,1.0053046700227546,2525.5421848522656,0.005305038575316656,13.327463730306395,1.0052596712759703,2525.44097809327,2.007468627963733,2.007468189599073
142,2.698777718569165e-07,0.0104049605915559,0.9999998525370872,38554.33882389763,2.6987556415072124e-07,0.010404901820811396,0.9693724537471937,37373.614172069276,2.000000526270478,2.000000508049216
143,0.00364875561076455,0.12080876127730647,1.0036483379958372,33.230373696060774,0.0035366965691608168,0.11960445713125295,0.06178417940092639,2.089425284878525,2.000226804675231,1.9621442632196566
144,46962.90369669606,0.05143392646348104,46963.90369627845,0.051435021666309984,3513.894625519268,0.009273523151709383,3514.395109682344,0.009274843980011872,1.0000425860048203,1.000042626798703
145,0.07218986101869977,102.54468281259086,1.072189443403778,1523.0300327128825,0.07217498592832482,102.53426724101813,1.072048174672095,1522.9885066584527,2.071569928497972,2.0715652775147113
146,1.7042787559692105,68.73064018851281,2.7042783383542885,109.05890881525238,1.671689076925414,68.30558358855626,2.6596251765276913,108.67287004331271,1.6861719851567978,1.6832600319885966
147,0.0004268665758416661,75.02919336054906,1.0004264489610648,175842.2742143882,0.00031834391808416946,64.55973706109744,0.7723993154673812,156641.587541061,2.0007850595612133,1.9591515022642654
148,0.0014835975231519089,0.004611735545468925,1.001483179908204,3.113091998940341,0.0014826511140675473,0.004609788309271192,0.21161120775956382,0.6579315001252232,2.000020658694806,1.9994883309655753
149,445.5024827666061,0.04313103070348869,446.5024823489911,0.04322784500724628,434.4399971412195,0.03448124424735302,435.2355643944848,0.034544387947186256,1.0044793182242548,1.004479026607563
150,0.0004701490407971616,28.085952417088308,1.0004697314259914,59766.463043132,0.0004699208759816645,28.07913885071493,0.9993477572231774,59713.934556750864,2.000898707357771,2.000897762574712
151,0.5092113104985576,5.729865380693182,1.509210892883636,16.982292162427306,0.5074570400286943,5.72326797954669,1.4745249096689232,16.630178586299508,1.9285012701699407,1.9256480390743451
152,47.78194088832829,57.731069494539,48.78194047071337,58.93928842227379,47.67132658742055,57.728039477559314,48.67116927001858,58.938808339770894,1.0410134158589994,1.041011912359438
153,0.007128667712195952,73.83086719295324,1.0071282500972607,10430.722132270193,0.007125625051399604,73.81514669989615,1.0067510310699963,10429.046506468501,2.012003415042475,2.012001004529788
154,43.25217873382378,63.572412110776185,44.25217831620886,65.04221981579877,32.7196887629881,63.07142174273898,33.69841456118233,64.95804199868208,1.0452097951659205,1.0449634332204358
155,0.0025815733893113117,6.331797480811745,1.002581155774359,2459.0200932211005,0.002570987784674676,6.318998742602549,0.9621141557785944,2364.6935146268465,2.003640139101316,2.003430859500187
156,6.645420962602538e-05,0.005223667328347617,1.0000660365953151,78.61070519010681,6.612597983350683e-05,0.00520537112207159,0.03490979552878546,2.748064255236711,2.0000093491599484,1.9980034607003405
157,3.612997658407834e-06,0.007942681059529843,1.000003195358658,2198.370215037644,3.6122899102984992e-06,0.007941563408407152,0.5301061119855728,1165.430075120889,2.0000049802631934,1.999998734931231
158,17.61602158370087,0.019782640932623784,18.61602116608595,0.020905631874540066,17.59307754618683,0.01978638009194127,18.212234288679035,0.020482726175295757,1.1071411186139137,1.1071625337153488
159,0.006612662162222258,0.08648024179419718,1.0066122445472998,13.164451497125208,0.006609094412275756,0.08646697064161607,0.7328518595820193,9.587921774794625,2.0001482663232646,1.9993169087475953
160,1.0218970091827948,0.6964557561160806,2.0218965915678733,1.3779877099307962,1.0194482090609451,0.6959305301870177,1.8731448792680097,1.278710087829633,1.7953812569464842,1.7940265637461534
161,1.3279936284697638e-06,0.011689618551093697,1.0000009103925616,8802.473854264901,6.360882213115611e-07,0.006829143101633124,0.0002567701371539358,2.7567245424456677,2.0000023930746877,1.9171599700293442
162,2.3493038791597964,5.20698151081774,3.3493034615448747,7.423373941994751,2.324901580682909,5.192640260560762,3.253304532049331,7.266217302851151,1.5504831112895605,1.548391473721253
163,11837.40477225949,0.25173058862326697,11838.404771841875,0.25175185430508995,1286.4226718210075,0.10541846584921961,1287.073467477331,0.10547179659437342,1.0001689416277715,1.0001689614192997
164,337.1976262731317,5.211640337938424,338.1976258555167,5.227096075925316,86.6984655521979,5.16472679474487,87.4568170408007,5.209902660639099,1.0059178944024816,1.0058705588111694
165,1661.2038563959507,0.9021964908714725,1662.2038559783357,0.9027395886439867,1385.0685418617932,0.35738890136701496,1386.0432902059927,0.35764041544687014,1.0012034015734008,1.0012032814050638
166,59017.72846242672,0.047199830025642014,59018.72846200911,0.04720062978211425,10724.533793668119,0.0029778065709085044,10725.294144618294,0.002978017692258783,1.0000338875578045,1.0000339000491838
167,0.2299245909479635,0.41032865430729015,1.2299241733330417,2.1949506525727425,0.22987059789660164,0.41030178879414714,1.196677233926967,2.135979173423142,1.9796594420951446,1.979330197766938
168,0.024179140504153377,145.8628332638339,1.0241787228892278,6178.449985163713,0.024179103294006493,145.86272165090895,1.0241780087687453,6178.450457716034,2.0348886607839565,2.034888670469015
169,75.1810889722888,0.1302109735874467,76.18108855467389,0.1319429373164823,71.52271997443502,0.13009551319787066,72.02547483612231,0.13100999396380505,1.026250047750967,1.0262318295063566
170,5.643525187140012e-05,0.15786138365325525,1.0000560176382374,2797.3690457673106,5.424818667614105e-05,0.1546847464996004,0.059053874256212203,168.3878140236348,2.0000831273302864,1.9976779149776818
171,4.082017060427689,5.499542062130176,5.082016642812768,6.846802419945324,4.070392767470926,5.4964021422977885,5.055530617819335,6.8266702762199065,1.3801206911378543,1.3798759705821757
172,0.012927208957193332,0.024919992360635673,1.0129267913422657,1.9526355600592742,0.012923178870137995,0.024917119771872023,0.6209453940497784,1.1972418636936646,1.9999621593332388,1.9995190726129908
173,0.009293554384426852,775.3494078409784,1.009293136769504,84204.04116249866,0.0071281965446233515,676.9234125300603,0.9823797977799336,93290.90197651404,2.004000551254438,1.971564671984416
174,562.5303276612614,0.6542435204842991,563.5303272436464,0.6554065568844564,501.71376262684447,0.491469880587438,502.65362315869044,0.4923905512521946,1.003549722450693,1.0035490044511406
175,0.03988084530610007,1.7099601079221998,1.039880427691177,44.58666898138708,0.039786185161435554,1.7086675309515047,0.9580679306069079,41.145426706068655,2.0024241064403396,1.9997779621783167
176,1505.2686094934681,0.035128320675329554,1506.2686090758532,0.03515165757731746,1247.1862682899957,0.015064106509273003,1247.7538857284183,0.01507096246156042,1.0013277991793854,1.0013276423836133
177,4.063061503456381,13.128627486436638,5.0630610858414595,16.35984168109197,4.002386354768642,13.088859395424304,4.969844015679758,16.252701206848748,1.38311885598515,1.3819063362290516
178,2.9670517826515534,498.66116906538645,3.9670513650366312,666.7273159835925,2.95633193687567,498.1918711934845,3.956081447345032,666.6665519737056,1.4813174899993071,1.4813007328121839
179,4.376111502222765e-05,0.1568785422894493,1.000043343502677,3585.039866449472,3.467515629076746e-05,0.13880680464258027,0.009532636742592925,38.15973704522538,2.000068423558555,1.969006833995559
180,53.76772372191326,1.2239177950985383,54.76772330429834,1.246680843248062,53.463251269466674,1.2237741377032167,54.447287814751974,1.2462987400437167,1.0365211322886179,1.0365172872851125
181,557.0873891790541,4.3536885607204585,558.0873887614391,4.3615036483119605,75.41928348825797,4.303171733179985,76.08084890862396,4.340918440452953,1.0035846374910462,1.0035470666893291
182,1.456237305193955,264.9083302652643,2.4562368875790335,446.82113986761806,1.4561891533619766,264.90517116509955,2.4561831295498626,446.8208067915044,1.7939468351132384,1.7939458034603506
183,7.566680602248379e-05,0.027892745189535308,1.0000752491913383,368.65364830869555,7.561283338928143e-05,0.027881742135339036,0.425261993732234,156.81260333359126,2.000040735710802,1.999867062746097
184,5.616986509787076e-05,2.5296092527899106,1.0000557522510716,45037.499730366646,5.616904512977859e-05,2.529590759029373,0.9996817784493425,45020.985898776555,2.0001096205837294,2.0001095784309304
185,3.3629058281267636e-05,0.0036452006152730677,1.000033211443555,108.39797080128464,3.198180861799481e-05,0.003505523161300568,0.003030585889585659,0.33218224632473276,2.0000062678449506,1.9866443273142946
186,8.11848824831343,0.17513658762743434,9.118487830698507,0.1967091401927676,8.106072491228572,0.17508901945561678,8.968564252681766,0.19371861312934663,1.2167547298083767,1.2166789948355579
187,0.00022390619743658637,0.0045982660337601415,1.0002234885823713,20.541162979733876,0.00022309292321723312,0.004586802072664083,0.04467313597010952,0.918481992638458,2.0000094215355513,1.9977101621372482
188,0.8072973492073817,44.05804306590515,1.80729693159246,98.63276043598678,0.7974528991687095,43.851918368181096,1.7830212512051593,98.04830158381439,1.8902220383868722,1.886450495611578
189,0.0001260006408707196,0.011886477259536465,1.0001255830265918,94.34848836621111,8.079950600527087e-05,0.008957456769366542,0.0005841318494889564,0.06475702696828524,2.0000216724210156,1.8007079115890334
190,0.00022384969313561773,0.667257537481789,1.000223432078027,2981.49447904592,0.00022377535488654352,0.6671472282260568,0.969172963923994,2889.420315661428,2.0003349898456086,2.000320990779978
191,0.0031486093528037026,0.6257625543246721,1.0031481917378429,199.3681986204733,0.0018763943676254496,0.49138090895445824,0.016035058501943512,4.199182089740595,2.0010373869544513,1.7340644245909667
192,233.14933830361105,2.278113780585177,234.14933788599615,2.287884826241092,148.45038849433303,2.251535144831115,149.2784629747203,2.2640944841096435,1.0085467856030628,1.0085266472021712
193,62003.8914568155,0.04805542514889361,62004.89145639788,0.04805620018742669,14825.770084593642,0.002212885283054335,14826.597742583652,0.002213008818774574,1.0000322554962218,1.0000322639825996
194,6.468680808590548e-05,0.2207293507530418,1.0000642691945243,3412.4969739961566,6.468186932158545e-05,0.22072078736548217,0.9786851102161416,3339.670766715027,2.000100067475113,2.0000972656108402
195,4.563952020978022e-05,0.008861891276083106,1.0000452219071816,194.18021896314153,4.2341025567726315e-05,0.008428141460631254,0.003052083163497244,0.6075287101966871,2.0000154159972903,1.9783350379126865
196,5.39095117984368e-10,5.023960603476748e-05,0.9999994120243889,93192.41599320364,5.390922993851204e-10,5.0239344394284085e-05,0.9501222273428115,88544.23973516934,2.0000000007514878,2.0000000018171527
197,0.15721299656285495,0.014276774238840615,1.1572125789479333,0.10508840297679103,0.1571167573155298,0.014270694130478727,0.50633871374417,0.045990033359407045,1.9898791490829988,1.988489046436359
198,0.48998348302947903,0.07595841676087677,1.4899830654145576,0.2309807545953515,0.489807909046984,0.07594642955971188,1.2899699710454764,0.2000143560988342,1.925262350968007,1.9250091737201218
199,0.0001187188283122279,0.031770641345942825,1.000118301214082,267.64414965265865,0.00011871252088391689,0.03176974741387885,0.9172035995991381,245.46127459342722,2.00005008878792,2.000032703265869
200,1.8696460781059649e-07,0.019204323422462824,0.9999997696799074,102716.33345053258,1.8685086173440386e-07,0.019197018010013084,0.39310158354294666,40387.173540389056,2.00000037047172,1.9999996910082265
201,0.01282045156998768,0.29871511085029834,1.012820033955065,23.59859534297051,0.012658717920349555,0.2976628542518944,0.28213390464518107,6.634225034978691,2.0004965531981407,1.9827828815509834
202,1.2655425720369412e-05,0.23843732785625163,1.0000122378079948,18840.950203888413,7.709292895331526e-06,0.18282443365456166,0.005845581369894582,138.62686472579213,2.0000240321507183,1.8931307207411672
203,0.2792222849518798,0.00983572685893912,1.2792218673369582,0.04506114861597357,0.2789315414572296,0.009836672762181923,0.4802171709268162,0.01693512013919084,1.9684128881220198,1.9701997285431794
204,0.117006953648579,1.5093374055973063,1.1170065360336567,14.408885066744478,0.11534480943211525,1.5033743180964037,0.7415353572948946,9.6649794438621,1.996645578974872,1.9770967927677618
205,1075.7559117224002,0.010205782937884404,1076.7559113047853,0.010215270014427126,1019.0713114572792,0.0050633593258953905,1019.5752707441894,0.005065863298803429,1.0018574287848991,1.001857361356709
206,1.3162866091285944e-05,0.0064743468541735745,1.0000127452499812,491.87079215436864,1.284675906114383e-05,0.006360244008260417,0.008013010534841377,3.967125249238912,2.000008712669124,1.9971257278597923
207,0.7819401489496507,2.046479947204902,1.781939731334729,4.663661192231511,0.781038239946812,2.04570530684564,1.7521297629524535,4.589200593556236,1.8557920128102858,1.8549618431048214
208,33474.09117245113,0.03506019816364437,33475.09117203352,0.03506124554633032,8970.527527811784,0.0026277526438563347,8971.215387702694,0.002627954139882219,1.0000597462914778,1.0000597575501682
209,2.167904929006097e-05,0.06251761387901766,1.000021261427763,2883.8415493345306,2.1673929585876303e-05,0.0625096414182197,0.8178902286713566,2358.8719669472493,2.000032238111033,2.0000227293651314
210,0.004079714344342702,0.011663938572612817,1.004079296729428,2.8706713878937555,0.004079201547660019,0.011663278778295613,0.6930815704785982,1.9816631951485415,2.000018834856545,1.999881343911753
211,4.692639799231673,396.144575638818,5.692639381616751,480.5628193462922,0.9588279053895608,238.1844809528245,1.750611832508065,434.8732116910978,1.3432083245454212,1.2699042156748086
212,0.001370501058948699,38.79042149028867,1.0013700834441,28342.60313111964,0.0008056743887352565,29.38831334204184,0.46090042626817335,16812.1096264618,2.002543556111304,1.874938458313508
213,3300.2626742553757,0.22493755261969095,3301.2626738377608,0.22500571006074468,2477.2088852505244,0.05528632751191527,2478.1286690486836,0.05530685523915215,1.0006058624254006,1.0006058213074183
214,0.006873826670439125,0.00593276763648894,1.0068734090555176,0.8690277281757897,0.006764491243024623,0.005875607047007646,0.01840081536874839,0.015982866496100673,1.9999731813695012,1.985084901870271
215,35.426715374908376,57.03448775174531,36.426714957293456,58.64441583369467,31.695800305190815,56.83154867276815,32.685217055143596,58.60560345735059,1.0551804931804822,1.0550424542690402
216,5600.3270137491845,0.3598241144903417,5601.32701333157,0.3598883650177375,3608.1769954706065,0.06335636404614031,3609.126299439769,0.0633730329756125,1.0003570719810546,1.0003570563132493
217,0.0012385272491635757,0.6557357887451136,1.0012381096343432,530.1035257691215,0.0011802865984904705,0.6409993040007064,0.17238595083294392,93.62071436271519,2.0008558422896776,1.9896722031773841
218,0.02358115783207208,769.0234873445303,1.0235807402171466,33380.78800142266,0.01872252386846984,683.4723373705867,0.9974423497922483,36411.98478336535,2.009793302366547,1.9875841114083912
219,0.423393657497755,0.018111106755203107,1.4233932398828337,0.06088713533052657,0.4230640681800211,0.018103121682088046,0.7690194721674749,0.0329067253109735,1.9404250988253986,1.938931774408404
220,0.02125543180529204,803.8139204725327,1.0212550141903645,38620.66902607957,0.019290424268373713,765.3422851311756,1.0111823672654001,40118.38272090513,2.0075049982936464,2.004412089826275
221,0.7271731006778476,0.0037553045503202374,1.7271726830629257,0.00891955358338877,0.7269382239754401,0.0037578841001012333,1.070235510824288,0.005532548539676451,1.8664861393830035,1.8645187168685287
222,0.0005417873418507489,0.2555729629684591,1.0005413697269292,471.9772919760738,0.0005416083304627362,0.2555330160570733,0.9247771726629321,436.3136362939502,2.000347024086883,2.000269195890322
223,0.03551225444910399,7.928788210751762,1.0355118368341782,231.19777021624404,0.03551139665878642,7.928705043303905,1.0353156496541025,231.15712658946904,2.0120087649631295,2.011999131291897
224,0.32116072108964716,0.2927039725240758,1.3211603034747252,1.2040976488535835,0.3202090628074986,0.2924509391178587,0.9487220676338785,0.86647972174405,1.962830306331314,1.9592188598433669
225,3.526019105251667e-07,0.0020818689605710144,0.9999999350439751,5904.3038712987645,2.2924485541456655e-07,0.001415464032132354,0.00024335090518727996,1.5025613240329159,2.000000606990948,1.994154683378228
226,61639.20503273258,0.04800200128429337,61640.20503231496,0.04800278004159909,9497.520763202741,0.003405385185778221,9498.255099965761,0.0034056484860222015,1.0000324463353936,1.000032461044635
227,0.2344273946186488,0.014687179367857699,1.2344269770037275,0.07733844612004158,0.23440498964693146,0.014680955262621566,1.015173451812367,0.06358105282787256,1.978436215673813,1.9773953244935096
228,4.508760424346789,0.039901001463256654,5.508760006731867,0.04875065880688979,4.5047233527213075,0.03987638486262524,5.138901586323845,0.045490211358620324,1.351563023896623,1.3512742468122965
229,0.41716183063975043,725.7819879015694,1.4171614130248285,2465.5904542973035,0.41711028125827515,725.7387647576356,1.4171000962407856,2465.641629070515,2.0076955632882747,2.007709862658609
230,106.31669568456077,0.2101774749779914,107.31669526694584,0.21215437414562857,105.15542539625797,0.2098713092115654,106.0691445522558,0.21169492824784747,1.018636131470106,1.0186342155282122
231,0.8849666016807121,229.01790744247967,1.8849661840657903,487.8048620758385,0.8822416742235427,228.72378146918052,1.8815580107947891,487.7995178150804,1.9622367152712794,1.96215936744684
232,2936.2848370114566,0.4989422122627036,2937.2848365938416,0.49911213515220254,2236.3213102979034,0.13389160504097553,2237.281345621969,0.13394908366439306,1.000680958221749,1.0006809068926255
233,3.970984111020829e-08,0.003203825220502394,0.9999996232713927,80680.8570358688,3.970805334625504e-08,0.003203704996004307,0.7668920345483904,61873.993697308804,2.000000077029794,2.000000054058309
234,0.02890460601172646,0.04442684123173369,1.0289041883968029,1.5814421757565507,0.028894544734820282,0.044421776250906514,0.7225099284439603,1.1107693398511582,1.9996635442984978,1.9990533407368238
235,0.01288030996073472,0.9443574136898363,1.012879892345815,74.26223735531686,0.012837797530287545,0.9432566293225259,0.8288705151978429,60.90122596697714,2.0016623291631683,1.9986626422009497
236,1.4363693231290551e-06,0.17161293941699715,1.0000010187181831,119477.01157274011,1.144504138644515e-06,0.15219042132906097,0.010628613159017577,1413.3396815237797,2.000002849046198,1.9764994083283625
237,0.16640517926985035,0.2627923415014593,1.1664047616549285,1.8420234261860295,0.16373707444508626,0.26166214879717054,0.37412496667004796,0.5978752401026081,1.9887553158980364,1.9648003836645518
238,40.85562193553757,0.3904677840553011,41.85562151792265,0.400025039641967,40.69316579743347,0.390426082667906,41.64893790613267,0.39959613255245463,1.0477625306296467,1.0477581149903221
239,0.9826394353186315,741.070179981423,1.9826390177037099,1495.2327383558059,0.4499952744155172,512.6741445022826,1.3755226066748527,1567.1161803566322,1.8197883829149002,1.747553188197246
240,5.226981804699086,17.15436003310898,6.226981387084164,20.43624497362482,5.222806108633685,17.15202103424274,6.221641982054762,20.432260345128505,1.31590347872388,1.3158627315856444
241,4.032224642918538e-05,0.008302998568578378,1.0000399046297646,205.92428825225903,4.031372634346147e-05,0.00830181762300426,0.5174312947499549,106.55477999854504,2.000014059273533,1.9999566750195785
242,0.9168735612261689,604.6895365676122,1.916873143611247,1264.201719721378,0.362671263770889,385.56221664336323,1.2490883063243807,1327.9278075750037,1.8967573980749959,1.750824158493593
243,4017.5453094901222,0.7041725532685417,4018.5453090725077,0.7043478275230802,2339.3331901924653,0.18181641421257477,2340.2860984989256,0.18189047564686742,1.0004976986659424,1.0004976453035825
244,0.00022761728450484126,65.68325278839521,1.0002271996694228,288634.38971532934,0.00022761636502167785,65.68312012356272,1.0002232024887765,288633.8192475218,2.0004238192455164,2.0004238186551007
245,3.673650105550649,5.744979492514495,4.673649687935727,7.308812990060993,3.2811704447964107,5.604377967851956,3.890305537322906,6.644806482443423,1.4106711809255081,1.3989722188340743
246,0.06956706333619095,0.025741912728503607,1.0695666457212702,0.39577193475050587,0.06951281455954947,0.025735226486624123,0.46149769414295244,0.1708569528809573,1.9976291391907741,1.9963894724191777
247,5.800605302695826,188.3858004108183,6.800604885080904,220.86270788986104,1.866556094036519,142.9626494511641,2.6596601487869522,203.70781393876547,1.3004538580561353,1.2598845419035831
248,335.09720997723736,8.559798784168324,336.0972095596224,8.585342999263549,306.9338961628935,7.676454480693583,307.92773430258364,7.701310494760076,1.0059512475333372,1.0059497396097505
249,0.5379931450614264,346.6771504313721,1.5379927274465044,991.0664123321693,0.5239938790117774,342.4616763697665,1.5197822588065304,993.269579884189,2.083975003367049,2.085157685327188
250,0.012230671861212617,0.004812901202157236,1.0122302542463013,0.398323515077849,0.012228982111628659,0.004812355341949844,0.5683933796469155,0.22367445564187438,2.000046551204709,1.9996782167812346
251,17470.576101188577,0.17106811106992895,17471.576100770963,0.17107790285004187,8535.456399945393,0.013449433505586405,8536.392477488384,0.013450908495567094,1.0001144715681576,1.0001144765491305
252,37044.21522034588,0.0735579953366093,37045.21521992827,0.07355998101680741,2969.7480240012214,0.015418564394807693,2970.2971819957006,0.015421415555186408,1.0000539881548676,1.0000540326075233
253,0.014535832219414919,35.22574480195837,1.0145354146044936,2458.597833818792,0.01452893593070655,35.21750056064759,1.0136602699008508,2457.0678330332044,2.0196963998087933,2.0196782142626426
254,0.002040448514311754,20.532099927589552,1.0020400308994055,10083.070413962956,0.001476884183905046,17.399351390568032,0.45477124524719337,5357.71510360412,2.0036332644790624,1.9506655925794267
255,0.00020719096076033655,0.017650571431110477,1.000206773345991,85.20748701602413,0.00020697584031354642,0.01764089584204199,0.26295633306738037,22.41220654362215,2.0000323796593515,1.9993740328460097
256,7.672151198578751,0.014930968209357146,8.672150780963829,0.01687709278217943,7.6656851204446435,0.014925945324750002,8.175061918968648,0.015917758858048966,1.227762468053826,1.2279219277118867
257,0.0034963993808521487,5.690900057671885,1.003495981765908,1633.3361033582112,0.003493591715690119,5.688668128613487,0.9944242874769413,1619.236078756211,2.004298325000839,2.00423924271606
258,2.822204716888463,16.871675824438743,3.822204299273541,22.84986325981959,2.749774479379289,16.76339910868119,3.697629312885622,22.541788933124515,1.495450552333128,1.4918987238845178
259,6.1481317569364805e-06,0.02945262793049717,1.0000057305086987,4790.527899114772,6.13378747557874e-06,0.029412340053552036,0.19096788757659783,915.7168341867646,2.000010189594005,1.9999570955470998
260,2.655455969295505,0.7257028371985459,3.6554555516805833,0.9989901906795912,2.6546181368154396,0.7256568455657443,3.6391560172682165,0.9947865718948222,1.5093054075485044,1.5092630004133472
261,0.0010619492396423728,0.5420637933974147,1.0010615316246958,510.98413276273965,0.0010618850762452532,0.5420484188106649,0.9939553676209562,507.3731116858427,2.0007167190137465,2.0007032293125353
262,0.08203996079865515,0.0983369294538402,1.0820395431837335,1.2969831431960963,0.08177356778202538,0.09825324614298568,0.4178238154109559,0.5020270888681686,1.9971478856025253,1.991725701367939
263,4521.638461631028,0.012821395526011605,4522.638461213413,0.012824231088890062,3514.2109318608395,0.0023119748224681826,3514.7202497880708,0.0023123098991745107,1.0004422193388136,1.0004422052687278
264,55.98601116344066,7.6600927208397955,56.98601074582574,7.796914211828117,54.39895825948553,7.655811018946564,55.386343851896804,7.7947702516265975,1.035165862599069,1.0351483794432128
265,8528.84967136995,0.20327574269662643,8529.849670952335,0.20329957658579534,5715.783544540392,0.023395798259386452,5716.731108787725,0.02339967682158106,1.0002344772224718,1.0002344751056327
266,0.002571270388843655,416.1716341349785,1.0025708527739046,162270.5849782899,0.0025704283797387734,416.1034620488,1.0025189211067922,162288.74421482932,2.002974108823416,2.0029746304110927
267,0.02756103806332757,0.018091824726801927,1.0275606204484053,0.6745191018785553,0.027549539124211098,0.01808920312091998,0.5037646373035808,0.33077507424843366,1.9996162995612963,1.9991298862847564
268,5.256023083773848,372.76571093061693,6.256022666158926,443.6873087464405,5.2430566976493855,372.6031014223048,6.242890993239295,443.6573319844513,1.313199927402745,1.3131761440412595
269,612.9387806920103,4.833659530126119,613.9387802743953,4.841545566486978,186.49542953270347,4.70079127318637,187.36500212216882,4.722709661482551,1.0032576892025074,1.003246591331004
270,1.0324377779509093e-05,2.679533291513203,1.000009906758303,259537.1744648902,5.3378588131842175e-06,1.8885142269380726,0.04236950226218091,14990.169393911254,2.0000205140659157,1.8168216844430791
271,7841.763493600601,0.28152363336861597,7842.763493182985,0.28155953390502336,2464.3805705587047,0.06949296022103967,2465.2190251613347,0.06951660376580861,1.0002550182479817,1.0002550023205083
272,3.2990664613600107e-07,0.0011296454680209882,0.9999999122373799,3424.1364401451187,3.219465254330959e-07,0.0011044076624498484,0.004678241224584392,16.048272141683544,2.0000005182853116,1.9998595823461855
273,0.0033896214732308293,7.683805281469616,1.003389203858293,2274.545203605663,0.0033895765653451488,7.68375522027593,1.0032773992433686,2274.307072050493,2.0046601507932276,2.0046594415215075
274,398.84933457149583,6.4370829367912314,399.84933415388093,6.453222064252695,389.9017518168128,5.36245338966153,390.9000204432765,5.376182922690886,1.0050033552509126,1.0050030876585636
275,0.6195962966618411,2.587084787876584,1.6195958790469192,6.762519214146779,0.6111360402653566,2.5756149098062266,1.3841202066947567,5.833333998399403,1.8972165583964886,1.8859839714544295
276,0.008627147006081448,24.45192905006653,1.008626729391152,2858.7514745822405,0.00862697063376032,24.451682184670638,1.0085724796125284,2858.627295563356,2.0123894754414917,2.0123887554352886
277,0.6326686899881092,746.4336138639792,1.6326682723731878,1926.2506554757479,0.632580721735484,746.3861167579289,1.632570148995567,1926.2801599465224,1.9336230360576152,1.9336375934541834
278,53.96167167790976,0.18157948463279694,54.96167126029484,0.18494445467831958,53.64144958564188,0.18155532670285718,54.53908487029623,0.18459347105996,1.0363792167320987,1.0363753010605332
279,4.029666042158297,127.97281313177534,5.029665624543375,159.73047204186122,4.024917325975489,127.9411091547538,5.0246478684809945,159.7198077229383,1.402824749347478,1.4027773368232668
280,0.27225544214662656,0.48804685502385353,1.2722550245317048,2.2806525321047206,0.27220292059694096,0.48802186291961563,1.2492443575609449,2.239720857078718,1.9724644808802154,1.9722309677444456
281,2424.543832323626,0.04272647618969443,2425.543831906011,0.042744098662745596,1710.1398636600695,0.014328173107080807,1710.699934723372,0.014332865585934608,1.0008245668045377,1.0008244595550273
282,0.7966574646850425,772.2689350688227,1.7966570470701206,1741.6549595418464,0.7965144312524269,772.2081532652782,1.7965017854030296,1741.6800896658226,1.867262722640899,1.8672793641283894
283,7.293530126329619,4.944436757216671,8.293529708714697,5.622357408356057,6.300845648774654,4.844168150494957,6.9126078338791475,5.314498493111222,1.2382584964230199,1.2334723353788306
284,2.302862324479289e-08,0.0005085919613310072,0.9999996052915976,22085.200455936363,-5.533144384421361e-08,-0.0014061880068869594,-7.536811431749197e-05,-1.915398028530314,2.000000041752028,1.9587411653851927
285,2752.493624584249,0.4531791168805331,2753.493624166634,0.453343759924055,577.5118549243576,0.31749471653570527,578.1414744373982,0.3178408581207024,1.0007264133760159,1.0007256924892676
286,13.036989892223879,193.9262732180782,14.036989474608957,208.80134743649447,4.858609641093153,171.48300299989492,5.7596029806456155,203.28326170818616,1.1418049780036255,1.1339770683531465
287,5884.258167455149,0.016986751433626653,5885.258167037535,0.01698963824515944,4226.443497083369,0.0025887135301338343,4227.010148451381,0.002589060606360987,1.0003398332830222,1.0003398243917516
288,9.557402903213799,57.0954577132171,10.557402485598876,63.069406331633395,7.942801388031443,55.89176689716481,8.888093943737688,62.54358514013023,1.19140222469981,1.1885639820548164
289,2.305539713953168,185.4895037868225,3.3055392963382464,265.9433017418317,2.3042675010495075,185.4595200971131,3.304153106323642,265.9355518172551,1.6054131605527195,1.6053837388804642
290,0.03404660372931305,64.8208654984557,1.034046186114392,1968.7064613614693,0.03404625917120052,64.82054108646787,1.0340358639640324,1968.696879969101,2.0408079713109486,2.040807599228921
291,2.7035418064837122,444.71410681493103,3.703541388868791,609.2071877168644,2.6456239036298705,442.0642919583101,3.6438618958585467,608.8625169951337,1.5282922486477841,1.5280812310021974
292,109195.95184057749,0.0230359284353469,109196.95184015986,0.02303613939480489,9879.59355170511,0.0015731714404055466,9880.155600001626,0.001573260937845252,1.0000183155372284,1.0000183320421676
293,0.22849778493238995,0.006257672608099277,1.2284973673174682,0.03364380239773115,0.2283170534460077,0.006251286811730216,0.43125643693580495,0.0118077368116004,1.9801586565321168,1.978112327194713
294,836.5291565941042,3.5646147161270623,837.5291561764892,3.5688759103716285,98.70460935911986,3.5295523417042216,99.3768307223987,3.5535901298309343,1.0023879806974332,1.0023689179199928
295,5.246943216678709e-07,0.0013795486721826064,1.0000001068749302,2629.2428994400716,5.246681595573311e-07,0.001379486048039612,0.7065338793787516,1857.6572854975934,2.0000008165394547,2.000000312030991
296,0.0005383577438098339,0.009086369566886694,1.000537940128735,16.887019076505712,0.0005257315626599479,0.008967388865002736,0.010364940306496422,0.17679450292204235,2.000018867681399,1.978358134297025
297,0.01927270655167719,0.3730645424992362,1.019272288936757,19.73019975864517,0.015646036513645312,0.3509009574749947,0.040355468265422724,0.9050709067014271,2.000540643934622,1.7440359275786
298,4536.228478599767,0.6261340571041812,4537.228478182153,0.6262720867026847,1429.7061466468754,0.24194397080115795,1430.5763959260253,0.24209123992123424,1.00044080217688,1.0004406861420236
299,0.02922556787494302,0.016049469402845323,1.0292251502600194,0.5652077533076597,0.02916025542183669,0.01603435309031854,0.16361326877914953,0.08996604741334033,1.999512411756924,1.9965482361128837
300,2.7635736615176287,311.6165064552775,3.763573243902707,424.37499039177914,2.7631660181812405,311.6041094050747,3.7631488440333736,424.3728521515287,1.5374822948640372,1.5374787372132168
301,3.182019988798571e-08,0.0005097181626845165,0.9999996152163414,16018.691533919315,3.170026928525429e-08,0.0005078675908995186,0.027421269355137803,439.3140601262536,2.000000063843691,1.9999977874766426
302,3057.790198422562,0.21966659802705255,3058.790198004947,0.2197384363455887,2415.098108644543,0.05518886632724734,2416.0264446628144,0.0552100802945954,1.0006538896732988,1.0006538502182807
303,0.787917071799453,11.33210544448185,1.7879166541845317,25.71445749346736,0.6451056852951321,10.551567590147647,1.1377617579342032,18.60961756186609,1.8640929498562466,1.7552003427715486
304,9.740585933852862e-05,0.00817771210994716,1.0000969882444373,83.96317539239891,9.739924090909826e-05,0.008177361096889334,0.7678655200810915,64.46778817726155,2.0000141108618816,1.9999823672059978
305,0.1851246609779963,1.062727668793664,1.1851242433630746,6.803330889177395,0.1842158075025679,1.0612970684508007,0.9628211670939171,5.546968503584627,1.9875882643015716,1.980786213224725
306,0.12303023978693443,830.0798845932183,1.1230298221720125,7577.035262206201,0.11747878462888288,810.9218821160205,1.1139360026985394,7689.176243341987,2.0194313241222925,2.0218687144999468
307,11.786394674595735,163.42223095491374,12.786394256980813,177.28755340670554,11.742109911599897,163.36722658918276,12.741792191602656,177.2757424167398,1.157787097152794,1.1577636136010057
308,0.0926477916964538,28.74124454793914,1.092647374081532,338.96161806027015,0.08817587951810746,28.094291380637866,0.9883649128612255,314.90938342860323,2.0366343868535473,2.0237416734992024
309,0.00016589316468820805,0.016560333800476584,1.0001654755494347,99.84181181871425,0.00016567382105307286,0.01654839089584505,0.21096644009247603,21.07246090157355,2.000030283816842,1.9992783878693816
310,555.7306134666471,5.12760923734007,556.7306130490322,5.136836022713631,459.2220770640271,4.0050906155465285,460.2079513199019,4.0136888862471825,1.003592673224839,1.0035914231449685
311,3176.717002840398,0.9057216339774157,3177.717002422783,0.906006746329232,2365.0896735050155,0.23168448414351128,2366.066960073205,0.23178021925958228,1.0006293896977516,1.0006293432912903
312,208.56507308779635,13.752385003552329,209.56507267018142,13.818323077731037,189.97679252580372,13.395359908768812,190.97024862251396,13.465409001566222,1.009544862524184,1.009540773083343
313,11.953468070112987,52.91818715069091,12.953467652498064,57.345200695285264,6.10476606544635,48.94456198768364,6.907244884514453,55.37838334670245,1.1560193024037757,1.1472869137708355
314,5.706276781050338e-06,0.02212603955017531,1.0000052886362054,3877.5119777271766,5.697008127085104e-06,0.022104168999288,0.2125985609593059,824.874112098968,2.0000090794187315,1.999966789277683
315,0.7697252416119362,0.23016445447994405,1.7697248239970145,0.5291859051443785,0.7696389829553927,0.23014135347205344,1.7449981900119809,0.5217982120831798,1.8569601210156583,1.8566524101710353
316,1.1436410825552819e-05,1.1863941535139906,1.0000110187942488,103739.47248346747,1.1436358490076317e-05,1.1863914254082633,0.9997617338721835,103713.8482102043,2.000022628992037,2.0000226238776486
317,0.0007044049746886118,0.007533964522083172,1.000703987359855,10.703031081245717,0.0007030348935599549,0.0075255161514160025,0.09996779282477526,1.0700880516965379,2.000015027629137,1.9982105005054773
318,110.40088860841209,0.9930216764686374,111.40088819079718,1.0020163618763807,102.61078255932559,0.9911658407447733,103.49378454719337,0.9996951725153236,1.0179575634963545,1.017945437128016
319,2.069818749860515,616.733804361833,3.069818332245594,914.6988058123975,1.8156016973187317,590.9046787997115,2.8065316169360957,913.4121575761698,1.5901165971839226,1.590914550269969
320,4.954734500587943e-08,0.0012728277358042093,0.9999996303048567,25689.111396280463,4.9091256141314426e-08,0.001262073797949692,0.0125845460315088,323.5326828822469,2.0000000949322883,1.9999912528307433
321,0.00967542639871999,4.324775781251209,1.0096750087837996,451.3101381764901,0.009464772639791385,4.281047290245573,0.7598250965516594,343.67937767227335,2.00588233156089,2.0003830003624494
322,12315.69554176738,0.23857727539285095,12316.695541349765,0.2385966471916219,7020.063558629106,0.02260809744674876,7021.0158932882405,0.022611164438179225,1.0001623813399605,1.0001623834999225
323,0.740092945637533,7.503719068918359,1.7400925280226116,17.64260227201312,0.719963557470122,7.4340746664915685,1.5541792941757773,16.04787464329036,1.8723319562834695,1.8547786008502705
324,0.03377914603884615,29.46049634368362,1.0337787284239282,901.6105503048223,0.033778922964485474,29.460402116758292,1.0337641552008743,901.6009106663529,2.029646496837398,2.029645815864708
325,724.5200757971289,3.5290687905095828,725.5200753795141,3.5339396939318726,650.0110803979984,2.323646986310888,651.0024384506431,2.327190873824271,1.0027571077190842,1.002756710177588
326,1.850048951467406e-05,0.01735924309106378,1.0000180828725773,938.329603780242,1.849826609266522e-05,0.017357951154566027,0.7527582980339127,706.3549471616623,2.0000178556683474,2.000006605394867
327,1.8136337796363393,1.9106981526388556,2.8136333620214176,2.9642169920849972,1.7703011894301977,1.8974345045457932,2.4190738686462874,2.592798476790227,1.6321771545499557,1.6250309281195419
328,0.51013724511248,733.3577594092029,1.5101368274975584,2170.92668850467,0.4648106345914795,701.5067159802492,1.4574084212296894,2199.5662735155943,1.9782826601869907,1.985775821036179
329,6.549367073769572e-08,0.0009422887009444335,0.9999996478454299,14387.47223204295,5.5975680137302123e-08,0.000812952378094407,0.0006660654445692906,9.673477585282114,2.000000117870691,1.9996569096468344
330,0.00012405541236686142,0.07885245554875964,1.0001236377972866,635.7014433151857,0.00012287060735733925,0.07846767977573553,0.119898081876032,76.56936428264052,2.0000964248038553,1.9984214606519544
331,0.0002603663009788651,1.7801474796161263,1.0002599486863732,6838.8659358783225,0.0002455361728477456,1.7285778392263007,0.3130457534678118,2203.846161778797,2.0004534700475345,1.9976975500221785
332,40.882501783302835,0.029970148130887303,41.882501365687915,0.03070322791582225,40.74440148210235,0.02996329244660856,41.40902941773866,0.030452057540198273,1.0477281041937612,1.0477181279898067
333,0.01871393819653139,91.62438414945495,1.0187135205815991,4987.6727158002695,0.01871392036054315,91.62434078504995,1.0187128335522424,4987.671745162085,2.0279439191066944,2.0279439107172776
334,1.7810975189954161,615.1886307280705,2.7810971013804946,960.5871096182665,1.5659278819349505,588.1602478240812,2.5565156324414344,960.2235743353052,1.6507139953800456,1.6520052047418252
335,109319.34610853848,0.017096028835290725,109320.34610812085,0.01709618522134959,12869.911408317354,0.0009036006052088818,12870.47262822083,0.0009036400086381944,1.0000182948800984,1.0000183071732687
336,3.763292535182253e-05,0.004003533670965521,1.0000372153116184,106.38776088462562,3.7627769996295976e-05,0.004003117154891237,0.539398061921603,57.38510773309208,2.000006554698819,1.9999668293089714
337,0.013022038884702748,0.2947469540746481,1.0130216212697811,22.92920793162303,0.01301941742171084,0.29473044079072136,0.9715316462414446,21.993299781707833,2.000486464447145,2.0001999693921126
338,0.03039458797417736,0.34768090335562085,1.0303941703592543,11.786584383615654,0.03037995065713636,0.3476395597131771,0.9498002375143946,10.86861990368022,2.0002251166756,1.9994565069410362
339,0.000756342443040612,29.079739277312495,1.0007559248281344,38476.911671430906,0.0007561904422875216,29.07681914776362,1.0003070233260434,38463.52027606034,2.0014311157471814,2.001430568261512
340,63.80899110635357,0.29824742012002997,64.80899068873865,0.30292148392195334,61.329477214584166,0.2980311577601314,62.043525641038094,0.30150108264614134,1.0308558138433055,1.030836407651269
341,1.527801326405065,100.55943925322948,2.5278009087901436,166.37912111901542,1.5244866034062587,100.4852246924777,2.523524788662838,166.33596834451626,1.7379048105847117,1.737639149272352
342,590.4072927827268,0.024144278126770793,591.4072923651119,0.024185172384580452,568.7848363604717,0.01706970346150012,569.4438124805773,0.017089479879996775,1.0033817753554195,1.0033815659069394
343,0.00304581273180636,0.02327014363876992,1.0030453951169171,7.663311068614087,0.0030241334566227956,0.02320767170571079,0.06297597570065734,0.4832874575052109,2.0000349374377424,1.9901341799725927
344,2700.5620218042386,1.106304640228581,2701.5620213866237,1.106714297244153,2065.391388095891,0.3175328756673699,2066.371726749451,0.317683592743846,1.0007403125770005,1.0007402511531927
345,39211.688021344766,0.06993216476840024,39212.68802092715,0.06993394821968969,4515.680842730748,0.010025316362111373,4516.327546795254,0.010026752117441553,1.0000510039588877,1.0000510326742356
346,0.029448232846476418,575.5402498131488,1.029447815231553,20119.66748011032,0.029448213333743107,575.5400588250477,1.029447721822324,20119.67230949225,2.022538149960406,2.0225381642828872
347,0.00031443379185290776,0.005749743746305881,1.0003140161767625,18.291765732180075,0.00031363132253748606,0.005740331628929386,0.06852298459340822,1.254162538957405,2.0000098823971846,1.998127157927078
348,11.662359610921623,0.12876673926310753,12.6623591933067,0.1398079598894727,11.588361188186127,0.12869431425684155,12.183273669752047,0.1353011029661902,1.1569768162733767,1.1568972260395163
349,0.35256354649465405,0.03076543736005659,1.3525631288797326,0.11802750633410289,0.35252749736617295,0.03077099921726374,1.2111879423137943,0.10572072676130843,1.9556462231946865,1.9561181522437148
350,10.453611254722272,5.583144473962824,11.45361083710735,6.117231882257855,9.220508315137478,5.511184824298807,9.954225269430836,5.949734371203261,1.173710380176448,1.1716139699161274
351,6.608528991006136e-08,0.00808448119677808,0.9999996489290117,122334.0076067432,1.669188296471766e-08,0.002640162858034044,7.5442849666429e-05,11.932830467034192,2.0000001306069715,1.8702218768031564
352,0.0027209473916794064,0.3621288700019531,1.0027205297768065,133.45133150542677,0.002474595126327866,0.3482817203201954,0.05641156864181163,7.939528354962031,2.0006346076294785,1.9403254602508522
353,2.3971619090502447e-10,4.7343894740135224e-05,0.9999997666091843,197499.73296239576,2.394883916523931e-10,4.72990689085142e-05,0.09474497459203521,18712.176615510376,2.0000000010400676,1.9999999956354098
354,1049.2248423152719,0.015967798259795687,1050.224841897657,0.01598301691546168,981.9783913312498,0.008127522540289917,982.5356359583027,0.008132134676673782,1.0019043649661084,1.0019042378360834
355,1077.4774235657903,2.7287824503183846,1078.4774231481754,2.731315015039516,1016.6270061107748,1.3562017994012132,1017.6230594124759,1.3575305554463968,1.0018544932492648,1.0018544025064628
356,0.3609282300724229,146.21313829345314,1.3609278124575008,551.3160508678618,0.1739083062280185,101.06437761765464,0.8762091046295625,509.1966550821495,2.093070392908444,1.875955354409646
357,8.415344657848844e-05,1.9478131776502448,1.0000837358313324,23147.908476797944,8.415306231068448e-05,1.9478087242104796,0.9999319006608599,23144.44687149909,2.00016102201542,2.0001609992865186
358,0.20510013408234937,236.11591172982054,1.2050997164674275,1387.3380412555384,0.20366368586953315,235.3001643238914,1.2018741641163437,1388.5695287591798,2.130008624875546,2.130260315890433
359,0.13048450282278376,0.008273955548187257,1.1304840852078624,0.07168341731467112,0.13043502426209164,0.008272965843701803,0.5089749333338625,0.0322822206887511,1.9925292670668788,1.9919329221700262
360,0.0077368560202622765,5.598362188521974,1.0077364384053502,729.1945924790605,0.007438652678464398,5.494474468041927,0.690824014661267,510.2691407350563,2.0064143115916577,1.9996429865497107
361,1.8693755874399973e-05,2.156203319532888,1.0000182761431309,115345.61278647196,1.8371061404611506e-05,2.1374361776183166,0.6545153802412144,76151.55279944833,2.00003698584619,1.9998672467454892
362,0.18387718008903436,206.17911311599448,1.1838767624741122,1327.4657616967872,0.18387489970015364,206.17785525619703,1.1838708478834603,1327.467494013504,2.124333606584934,2.124333950193685
363,0.0025353568243845362,0.787406209152673,1.0025349392094705,311.3574501362994,0.0018585635284837536,0.6806412016798526,0.034340926443568745,12.576298352534028,2.0011962837253616,1.8745150280890275
364,0.005595736732154399,0.8921677020630171,1.0055953191172262,160.32914127408011,0.005595486037054738,0.8921515021531289,1.002371152010056,159.81934778474465,2.0015169829585484,2.001492354809031
365,0.0004090840778032545,0.3126908391479818,1.0004086664630254,764.6805201684831,0.00040907678029467054,0.31268814452086147,0.9967891907397822,761.9209340270007,2.0003542119327418,2.0003514631215547
366,2866.2069498274404,0.038849084737834175,2867.2069494098255,0.03886263891211186,2318.867848758396,0.010107227824687186,2319.5755830724183,0.010110312619689628,1.0006975499094115,1.0006975095294657
367,1.2830298190989982,577.8798904308037,2.2830294014840766,1028.2822431254215,1.2765948500342426,576.7646536125943,2.276185915996232,1028.3791927894883,1.7913997134356152,1.7915767008700536
368,0.0015584847974663457,7.185275020535913,1.0015580671825757,4617.606904759425,0.0015584728715328574,7.185247733503375,1.0014889647847112,4617.306111507938,2.002541574288457,2.0025413655897677
369,289.8369809114702,0.4321762180432948,290.8369804938553,0.4336673184411839,224.11747764802683,0.41248986975663426,224.8056153768948,0.41375639231941785,1.0068775749760819,1.0068708414357397
370,0.05386894651283629,0.1232245145130224,1.0538685288979126,2.4107105529352393,0.05386406280526168,0.12322186470416639,1.0110151720304106,2.312844004957259,1.9988524153086813,1.9986957115072745
371,0.011325096936901854,17.216443677310988,1.0113246793219857,1537.4185738126414,0.01132446882892902,17.215977883807437,1.0111159541538375,1537.144935240514,2.0133311714093556,2.013327285585022
372,8.350712774414795e-08,0.003128790783048477,0.9999996660079202,37467.337490558064,7.188330673266168e-08,0.0027566821376767033,0.0009080920855055276,34.82479236505737,2.0000001632105042,1.9987546272601462
373,0.00028099460641109995,22.50474266079414,1.0002805769915295,80112.06073062835,0.00028098494691892925,22.50435591169281,1.000181340971077,80105.49006364211,2.0005425203543994,2.0005424725895926
374,9.14538306359009e-07,0.003760146788219943,1.000000496935526,4111.526691255282,9.145336107800661e-07,0.0037601310506270936,0.9682699821299624,3981.069675603847,2.0000014905358205,2.0000014199277447
375,2672.748698201112,0.9563156316772928,2673.748697783497,0.9566734338279211,515.4406915329181,0.7084512294556987,516.1988209377907,0.7094932459627216,1.000748047848308,1.0007471913133519
376,3.362386284489027e-08,0.0037065320311247827,0.9999996181629915,110235.12179228841,3.36085997212089e-08,0.0037051573444715495,0.25549839453770906,28167.2476947823,2.000000067304844,1.9999998575979507
377,0.0010205968031994808,64.35165811158303,1.0010201791882938,63117.29385392753,0.0010204363008528524,64.34659953314907,1.000861300223578,63112.240538569655,2.0018792582320315,2.0018790821416967
378,202.59038749492575,14.579477952748505,203.59038707731082,14.651443222396384,165.98866479020595,14.344342622440497,166.9744586719854,14.429532567267286,1.0098236513903898,1.009813925413003
379,90.83230481136245,31.773577428288192,91.83230439374752,32.12338209552805,88.70402941900072,31.752178272640638,89.7024471518514,32.10956832641479,1.0217798793481676,1.0217750045219536
380,250928.0531523336,0.011913577156652979,250929.05315191598,0.011913624634693126,16510.0694087942,0.0004937783842361742,16510.588603640128,0.0004937939121655717,1.0000079703738438,1.0000079811048121
381,0.00038286151345461603,1.797068512737744,1.0003824438985605,4695.577192923674,0.00038286068123835365,1.7970665690910437,1.0003041316754482,4695.214740106654,2.0006300512980064,2.000629971698975
382,18529.546569389106,0.10051302481789255,18530.54656897149,0.10051844928861373,8735.516259439266,0.007728503516495438,8736.411223988513,0.007729295311331663,1.0001079311784102,1.00010793660525
383,0.00011375755331570177,9.36159939789341,1.0001133399379605,82303.63758795845,0.00010459723073440585,8.974045265504564,0.6221675377859529,53379.612515707755,2.00022267252307,1.9965960043836706
384,0.004176719061082009,470.48519693198836,1.0041763014461367,113115.12170941413,0.003909396864460599,455.08878477234265,0.9945697121166854,115776.81605395443,2.0043581622169513,2.002360186840288
385,0.1770797630933235,0.015073587221625776,1.177079345478402,0.10019670159312427,0.17695040488898087,0.015067245652469703,0.4962199767355496,0.04225290296356319,1.9875363053850645,1.9862270958387047
386,3126.3445377856874,0.9533931360276294,3127.3445373680725,0.9536980904964519,864.3227640506831,0.5280747237343741,865.1766690065948,0.5285964334965644,1.0006395207254983,1.0006391529292689
387,7.537713382018494,292.52237409045506,8.537712964403573,331.33019777695523,7.307905615838481,291.3117463009817,8.305818263024696,331.0910881794,1.2317312200802157,1.231475183022943
388,0.0004084024015774288,0.009743825629489257,1.0004079847864675,23.86812840585121,0.0004024361595075694,0.009664730207207999,0.01690507092512428,0.4059847649499529,2.0000205011204546,1.9871853719129338
389,1.2694550124008788e-07,0.00212027018850434,0.9999997097860203,16702.203327097774,1.2688542455820233e-07,0.0021193915567895346,0.21729680137962123,3629.5501060493634,2.000000253324727,1.9999993259723077
390,1.1925668489519778,0.36828531095434136,2.1925664313370556,0.6771025126705782,1.1923205460615671,0.3682720055733677,2.1663347831854596,0.6691157491014671,1.7554217353939332,1.7553312160639447
391,0.000164862864052562,1.7588687367009639,1.0001644452487268,10670.431964271767,0.0001648619723377393,1.7588639849483012,0.999965362271066,10668.336893915368,2.0003009312551705,2.000300878757563
392,2.1792450558824914,559.8853466623916,3.1792446382675696,816.8023516291365,2.1790170003155604,559.8673210127461,3.1790092144479547,816.8010493309876,1.5866309864871477,1.5866316758333951
393,2.9818380911489492e-05,0.04215102653706815,1.0000294007625865,1413.633621976779,2.923551626585528e-05,0.04169197044723376,0.03616163797703836,51.56912325926882,2.000034886148231,1.9983996241538775
394,8.07908680508776,0.06304831846627557,9.079086387472838,0.07085220690780743,8.066258785537489,0.0630373332990828,8.754440609698733,0.06841543337911048,1.2176187192089531,1.2175700412560297
395,0.29011455854647794,66.64712498310307,1.2901141409315557,296.37395249628327,0.28999710551340724,66.63488601520875,1.2896373631958986,296.3299876575496,2.051887617697461,2.051815031742772
396,0.0028526490233171586,0.049268072110791684,1.0028522314084294,17.32025063358297,0.002713626493839705,0.04845478581970615,0.019176413787702427,0.34241596070150565,2.0000887450941276,1.9336085117370094
397,0.00030822192639473584,1.2133878211055114,1.0003078043112974,3937.9460160588155,0.0003082153840433033,1.2133750114535136,0.999178278292091,3933.54134035189,2.0004909560849473,2.0004902795899864
398,0.41436686003444384,0.49919923703658625,1.4143664424195221,1.7039264406600625,0.409805753461678,0.4975088724964232,0.8489356944824322,1.0306176441308021,1.9435067801550812,1.9313070720806393
399,450.17109709684877,0.3057066155117843,451.17109667923387,0.3063857050619923,352.9999534037892,0.263209831630318,353.7203071164605,0.26374695402254,1.004433320125187,1.004430728899968
400,0.0009725945676988805,4.8316355405852764,1.0009721769527677,4972.609251504021,0.00095139393868653,4.778953388488683,0.7706613231329382,3871.114153457735,2.001610905914446,2.0008276932630915
401,0.0004674312052345287,0.1421461910044572,1.000467013590339,304.24279255407765,0.0003910916232766589,0.13050948326018008,0.011968209747169549,3.9938591795089704,2.0002177471070035,1.9336132764446556
402,5.8590767345995325e-09,0.0002194514140693867,0.9999995754975972,37454.93204002791,5.859058611841811e-09,0.0002194507464351534,0.9706235565622049,36354.65662770709,2.000000013058415,2.0000000136156366
403,5.341278048670327e-06,0.008335776087250257,1.0000049236693496,1560.6409278638143,5.340585095530691e-06,0.008335008090145552,0.6363817573858292,993.1958767347102,2.0000065249752055,2.0000006409758164
404,15228.190374154123,0.037230649978683646,15229.190373736508,0.03723309482823674,6527.570450218805,0.0037799918529564064,6528.256168972524,0.0037803889396400736,1.000131327970931,1.0001313337461886
405,2646.749163447066,1.0943122875817664,2647.749163029451,1.0947257426404073,289.548363684461,0.9929016414322903,290.1945146569652,0.9951173830550324,1.0007553670741918,1.0007536651729965
406,586.1177288211909,1.2301577088568625,587.1177284035759,1.2322565315585725,397.2144603042838,1.0171349225988933,398.1008582745235,1.01940469477728,1.0034075243734326,1.003404938756835
407,6.318487357490372e-05,0.0041609801948053506,1.000062767259117,65.8581893527791,4.562010513030711e-05,0.0032399645442109395,0.0004683946918682379,0.0332656443911067,2.0000077556023528,1.891375919985496
408,7.615562586970141,0.38900388864002833,8.61556216935522,0.44008399227567657,7.574396314826233,0.388741913906422,8.362748745130332,0.42920264765352134,1.2290823582737898,1.2289395874969835
409,0.27406799553124295,0.13073913303616844,1.2740675779163215,0.6077706747312723,0.2725916267085089,0.130522198692101,0.5681960847535025,0.27206339081564884,1.9715185774684485,1.964521129177551
410,0.018384186249038877,0.010930023448657813,1.0183837686341197,0.605463756737417,0.01826579841158179,0.0108953133587285,0.057960884322188655,0.03457292054853967,1.9999453136743242,1.991822723549667
411,0.07552149607830373,617.650930099032,1.0755210784633797,8796.125989946637,0.04672886288362587,480.68156618932335,0.987508623602484,10158.115616912119,2.0438829434374783,1.9542079028958348
412,1.4894370190656943,683.0872256240631,2.4894366014507727,1141.7081217161565,1.4877244313198796,682.801193150228,2.487647863525742,1141.722817475045,1.696597722480837,1.696641130054331
413,8.463829722584566e-06,0.1586592516984833,1.0000080462153766,18745.713643273113,8.463744239113122e-06,0.1586584211315446,0.9960473972809649,18671.559886519164,2.000016071301702,2.0000160048170423
414,0.7812559041957178,270.2082875316381,1.781255486580796,616.0721373118166,0.617249175004498,243.21445171749176,1.568739895569487,618.1299692875372,2.0037974885152896,1.9892373306139666
415,0.011413271042204812,0.00335575849658714,1.011412853427285,0.297378136723054,0.011402221063003093,0.0033531703637422155,0.14592566225817008,0.04291388522375109,2.0001332569157624,1.999085655518591
416,18.785156823310402,54.94956627853375,19.78515640569548,57.87472382965882,16.878959466317568,54.59784062634336,17.860306336745623,57.77217255940541,1.1021329087200458,1.1016755776726959
417,1204.4912186356498,2.4776698145949076,1205.4912182180349,2.479726839786581,1128.876804653567,1.1433113623872084,1129.8724542891277,1.1443197430507146,1.0016590766841713,1.001658996460414
418,2.964163011111809,523.7304812760889,3.964162593496887,700.417883620396,2.946772282377821,522.9286607800229,3.946383842419402,700.3178460654818,1.4758510523035464,1.4758357705353184
419,1.075249955360739e-07,0.01395895584527176,0.9999996898898863,129820.52635170994,1.0737361217018325e-07,0.013946030014217618,0.18195680852975624,23633.135383629124,2.0000002131360057,1.9999987827324592
420,1193.130955626272,1.802248901839982,1194.130955208657,1.8037594218216282,155.77612907766107,1.7716205907404088,156.4000322719619,1.778716156358816,1.0016751397525134,1.0016670104155148
421,47148.449254010586,0.06286408798573838,47149.44925359297,0.06286542130767638,4424.225900555576,0.009183843437654951,4424.83743036595,0.009185112856116433,1.0000424182860006,1.0000424500585414
422,811.3900209842203,0.012515976241951303,812.3900205666055,0.012531401586965913,776.7634618903779,0.007422607944281628,777.3033704598865,0.007427767210691337,1.0024618777479994,1.002461731379514
423,0.0031445021462627874,0.004761912909477999,1.0031440845313244,1.5191227558465774,0.0030012732001114244,0.004618920601963573,0.006595821245213142,0.010150883510122622,2.000014186879217,1.9625953159430105
424,5.110140308886555,88.8404868913859,6.110139891271634,106.2256161481656,4.845377102095705,87.99227916236424,5.830038310895506,105.87377365483394,1.3304836560613698,1.3285963119528938
425,24409.14469382798,0.11842555507822661,24410.144693410366,0.1184304067642282,7596.04986072931,0.010409559669953806,7596.919966250756,0.010410752054878961,1.000081933196487,1.000081943683457
426,7100.971237723639,0.20556987430050247,7101.971237306024,0.20559882383171016,2982.517788318219,0.04293357488197601,2983.3621037382227,0.04294572886793066,1.0002816216271104,1.0002816053191335
427,7924.151293409131,0.04072700371905503,7925.151292991515,0.040732143321417835,5021.628043014612,0.005291165504469746,5022.369275664571,0.005291946523014859,1.000252363893282,1.0002523600767341
428,16.18732660463173,159.1756466722009,17.187326187016808,169.00899247944065,16.16783227434822,159.16294493770445,17.167752067612795,169.00657618627923,1.1160951063879292,1.1160908809119845
429,8.061626893957841,0.4539608717261396,9.06162647634292,0.5102721706880833,8.0319642565859,0.4537480940221239,8.901509299929733,0.502871122148168,1.218103653395469,1.2179997082834828
430,0.006018021870938735,6.9307823890622915,1.0060176042560085,1158.6014880295809,0.006014311161604243,6.928715231055697,1.0002830042491726,1152.3640697463882,2.0063706358457516,2.006308418561724
431,4.986121733137231,0.9711147517206189,5.9861213155223085,1.1658782168231023,4.984511213972929,0.9710677683021992,5.97603086181042,1.1642327006940163,1.3252044461620855,1.3251885459609523
432,3.683903401676317,7.3222660142476235,4.683902984061395,9.309903082317367,3.5362975925917812,7.258317615451154,4.387056271257365,9.004515875685975,1.410243864478867,1.4061606056697655
433,139.83720044946384,7.439186930978067,140.8372000318489,7.492385820832495,133.79411553408153,7.395842101862507,134.78584199405762,7.450662542036155,1.0142233310105142,1.0142189730100535
434,1.163236989905587,0.006652399326095678,2.163236572290665,0.012371265391809758,1.1628793860921949,0.006635955572908608,1.597012232620883,0.009113328821380936,1.762685297431101,1.7562828836568238
435,0.05734944062917768,55.35902340432633,1.0573490230142562,1020.6517913586682,0.05695538957547579,55.17369949568436,1.0490974495496215,1016.2793697765023,2.050559958975547,2.050045238947119
436,8.861747087844958e-07,0.16014625559845622,1.0000004684988955,180716.43101444596,5.806680271349533e-07,0.12746309482206616,0.004848091192846883,1064.2099763420374,2.0000017627103466,1.923863797299382
437,4.825020377511979e-10,5.595724437538589e-05,0.9999995386196114,115973.02017336778,4.734907358490485e-10,5.491660687560689e-05,0.005210578886388164,604.3356091962519,2.0000000014415242,1.9999998088119413
438,9.635928958785687e-06,0.09219429555543374,1.000009218314336,9567.852339485133,9.623585812298436e-06,0.0921316226274081,0.5419291868542644,5188.171676115655,2.0000174529918047,2.0000005840143196
439,0.00018434309360983422,0.01962375481879678,1.0001839254787692,106.47192548932037,0.0001841185658545813,0.019611121958945904,0.24753791328530408,26.36614175419552,2.0000357898901537,1.999339853529841
440,1.289208362331069e-05,0.05818578564719668,1.0000124744701797,4513.352006097391,1.1625548693591564e-05,0.05496028581566515,0.009053796259227247,42.80221460843605,2.000021115216359,1.9932544154021012
441,0.0002459544779924926,4.560267062228993,1.0002455368633398,18545.654517575706,0.00020918811797290766,4.201232301196944,0.2858390425043571,5740.65214577837,2.000464584523475,1.9865453315548818
442,68.61811301459672,6.388968779273452,69.6181125969818,6.482077811720696,66.84378558655659,6.386145319516955,67.83246346103363,6.480601977307912,1.028776405925484,1.0287657291971166
443,55.55648512091302,0.2711287391497346,56.556484703298096,0.2760089727594067,55.19581746255112,0.27109201583850945,56.120592178648124,0.2756340092993965,1.0353550698345235,1.0353513059023658
444,19672.70235211916,0.15181764535337658,19673.702351701544,0.15182536252304826,1602.4332097378094,0.05362238022771238,1603.0092083375212,0.05364165492555107,1.0001016584832383,1.0001017133857533
445,1.636679183255761e-06,0.057472110734452804,1.000001219089721,35115.11686962732,1.636674755340012e-06,0.05747202521429268,0.9972568136076138,35018.78949973487,2.0000031846623854,2.0000031721988774
446,30.221656229172545,80.72137106565494,31.22165581155762,83.3923476905987,30.06900427343585,80.70674008735297,31.06862597540958,83.3897756861787,1.064227300762337,1.0642199550359162
447,74753.68469905441,0.018377691226520918,74754.6846986368,0.018377937069700766,13541.55435004213,0.0009244200833990233,13542.163534970852,0.0009244616696725084,1.0000267542415808,1.0000267645751755
448,1932.2620146166369,0.0561557535495793,1933.262014199022,0.0561848157211033,1753.9899590306727,0.018451954090791017,1754.8356851496847,0.01846085111978542,1.001034537742093,1.0010344945910319
449,1.8768399483974287,2.104587085924714,2.8768395307825068,3.2259326800521078,1.7929109937805934,2.0771535658722584,2.3114198327806372,2.6778651949499404,1.6213912372935677,1.6084704014890003
450,1078.95650489262,2.230269769988608,1079.956504475005,2.2323368309206115,973.1340603741647,1.1423004161567,974.1253418569534,1.143464018682217,1.0018521939958032,1.0018520291954551
451,0.43121352874575736,0.45891556674055517,1.4312131111308357,1.5231571651555769,0.43107274119639766,0.4588646084110162,1.3920983715715223,1.481848915725683,1.9396911999827218,1.939312267683072
452,7.795103455206505,119.86424530752224,8.795103037591582,135.24110283599612,4.410772883174947,109.46218700515458,5.302536597011913,131.5930944433468,1.2317265968502011,1.2202704231843426
453,0.00010884199901920387,5.3541830110740065,1.0001084243844427,49197.585337681936,0.00010884004047168574,5.354134821611774,0.9998903101856852,49187.29820713432,2.0002122005376815,2.000212155804946
454,0.9415405011037314,11.440805999734684,1.9415400834888097,23.591957446190545,0.8978098003509478,11.257443364745221,1.7197969087361173,21.56416235531496,1.8249854687416474,1.8015119224241847
455,47.728319671393265,59.38121475906144,48.728319253778345,60.625364780881114,46.756953622049004,59.35354381888789,47.755587658037285,60.621215564425064,1.0410369994245046,1.0410236134788045
456,0.09826193838416815,231.64496079031244,1.098261520769246,2589.0670497610563,0.09819311610210528,231.56402622385406,1.0980045597788746,2589.370485097532,2.096290840761774,2.0963111032768205
457,60984.98633465415,0.04787771776980931,60985.98633423654,0.047878502843327446,12149.516740070712,0.0026764595043355733,12150.305129050326,0.0026766331812992537,1.0000327944056757,1.0000328052684302
458,1.3676819907480183e-05,0.030847517550096383,1.0000132592063762,2255.4897097699077,1.3676512257336944e-05,0.030847116202491736,0.9622668022755607,2170.3746766044424,2.0000189748257595,2.0000179081113325
459,5134.58248836505,0.5027196982808634,5135.582487947435,0.5028176068234717,2669.928895966696,0.11575480400610076,2670.8637351965426,0.11579533397376827,1.0003894484939846,1.000389414122545
460,0.8912481396779021,0.11755809551555026,1.8912477220629804,0.2494608072160437,0.8871308581776485,0.1173760226374521,1.2259739331812032,0.1622082501217504,1.8264809999126599,1.8235434010071694
461,99284.57745609844,0.030102929423152687,99285.57745568083,0.03010323262147032,9283.57203797511,0.0021828870518979275,9284.18461502966,0.0021830310898302233,1.00002014389658,1.000020161223886
462,7.053183533724472e-06,0.7055755967862559,1.0000066355752801,100037.13575756885,7.053183153500962e-06,0.7055755776745645,1.000001714684976,100036.64617218716,2.0000139582550145,2.000013958207152
463,2.462429441950228,4.073619627065521,3.462429024335307,5.727928114635789,2.4611208731838823,4.073070202506914,3.4562511865759835,5.719976565884824,1.5348039485682585,1.5347086127179659
464,6.526057650551264e-07,0.002354463016703278,1.000000235047506,3607.7884937394833,6.141894144385336e-07,0.002233753893240035,0.0021551047945322756,7.837930143305173,2.000001025186119,1.9993158959129593
465,0.0008238865531068757,263.5717984546459,1.0008234689381141,320176.17067409167,0.0008238828649107213,263.57120846191305,1.0008223618918217,320176.5331144719,2.0012087625291786,2.0012087644535956
466,58098.91769868157,0.03180623854145309,58099.917698263955,0.03180678599098431,8149.383888367391,0.0026138045618719417,8149.991164386876,0.002613999337434339,1.0000344235685008,1.0000344407827781
467,7601.8501941910645,0.31202020829826266,7602.850193773449,0.3120612535793486,3597.9367775838477,0.05507809972289323,3598.852985778215,0.05509212526292236,1.0002630647374933,1.0002630551832972
468,1.2963215457483887e-06,0.15833690513646934,1.0000008787752301,122143.3407462258,1.2962551668350821e-06,0.15833269454253646,0.9802004292581407,119727.79675403025,2.000002572161615,2.0000025180262044
469,0.02064742198622217,165.6199840497178,1.0206470043713005,8186.95625522477,0.020343613153897006,164.3965072826999,1.0145810323590292,8198.817821265417,2.030223826833351,2.0301680247138867
470,7.17728984170147,282.43032595668177,8.177289424086549,321.7808627524216,7.123544232383066,282.1368194145881,8.123005831207731,321.72173773902676,1.2436056465082577,1.2435364139280223
471,0.00014693182619599697,0.23839134124710928,1.0001465142116073,1622.699963236568,0.00014357800718916606,0.2356449010488982,0.13901460403162672,228.15529517849626,2.0001817678632294,1.9982227381773332
472,182.10847411481924,14.840842766883952,183.10847369720432,14.922337253295218,17.37465054423185,14.093160376128747,17.971173389624546,14.57702001444158,1.0109270014887912,1.0104319527289378
473,1.392929994713278e-07,0.0007147867587295651,0.9999997218555305,5131.532543835512,1.3589990482551393e-07,0.0006982340491683181,0.004379453948193352,22.501000771997102,2.0000002528782783,1.9999362610723521
474,0.06336614363355851,10.729978451541088,1.0633657260186362,180.06289592546185,0.06336111935991104,10.729618252399884,1.0628911178660567,179.9907585879078,2.01560845363936,2.0155714583038065
475,9404.410513843359,0.3167208634097632,9405.410513425744,0.3167545413027769,6067.001188096831,0.03446196721955744,6067.966436852309,0.03446745005530095,1.0002126435324286,1.0002126426597717
476,6.326743291696811,96.0118879107416,7.32674287408189,111.18744402043079,2.5599865815287406,79.42594758231621,3.30787608897025,102.62991015150311,1.2770662013580667,1.2445558133779309
477,28.000687716796758,12.474855574425726,29.000687299181838,12.920375002052378,25.848745487611538,12.435037008558977,26.807478775380527,12.89625412721793,1.069159846343385,1.068969211928711
478,6.787193599809149e-07,0.01431181593854982,1.0000002611327752,21086.505733734295,6.787125956907915e-07,0.014311722600436278,0.9697067636304899,20447.792324704453,2.0000012971336982,2.000001248362852
479,0.30763740444622656,0.3741019032893917,1.3076369868313054,1.590149567364148,0.3074505981104988,0.3740363911372452,1.220451945374352,1.4847700541476507,1.965691524827508,1.9649406927151971
480,23515.647607852174,0.041163277547755686,23516.64760743456,0.041165028010300614,7818.521805421164,0.003519751701867872,7819.233869082013,0.003520072259556971,1.0000850468561504,1.0000850564581953
481,0.0011901500363225444,0.015166970216961265,1.0011897324213586,12.758908028169692,0.0011496444238210499,0.014928077059984337,0.010492100972698159,0.13623942203015876,2.00002957185972,1.9606057495018014
482,0.004563004537712927,0.004565591473345729,1.0045625869228028,1.0051321105184976,0.004460320832727131,0.004497703769725598,0.011754908764166003,0.011853429258595293,1.9999995418005643,1.9817095289494253
483,166.54972277107595,17.16252335092745,167.54972235346102,17.265570752616565,155.68214927906982,16.95970437150898,156.6774674091217,17.06813235326188,1.0119387491194458,1.011934235860001
484,2.209826814548866e-05,0.015009483130267742,1.0000216806505904,679.2300847653199,1.1251253135686777e-05,0.009454391616532071,0.0003531866667730495,0.29678161366922284,2.000017852759981,1.8660445927667337
485,10.24740331587952,218.2634935125206,11.247402898264598,239.56287986771605,10.140195000538327,218.02990849555644,11.139449413152066,239.51542708118407,1.1776468910568545,1.1775785198215685
486,770.3500808614558,3.602674944420783,771.3500804438409,3.6073516148455607,449.6431411956249,2.8374875070682988,450.5955413358207,2.843497658790729,1.002593075380078,1.0025909002282754
487,0.050874166310758764,0.016946226378921247,1.0508737486958386,0.3500469045976132,0.050791212957743394,0.016935296218237035,0.23285576623930118,0.07764101598967463,1.9986162894791735,1.9966055558313298
488,0.7514305334938683,0.38638528509001857,1.751430115878947,0.9005846774586159,0.7503544419487935,0.3862129795681037,1.5870799217048623,0.8168817709433607,1.8615768528942427,1.8605159059105418
489,1747.1306510926026,0.017188155543659888,1748.1306506749877,0.017197993473270293,1579.3744692334826,0.006144483800677837,1579.9667373433992,0.006146787992544891,1.0011440865715948,1.0011440264251776
490,1.8221521470869382e-06,0.004565380119849596,1.000001404497557,2505.4913988458497,1.7386097936882814e-06,0.00439879508471467,0.0035078853690455256,8.87517657792886,2.000002639825842,1.9988553529163775
491,74.22991708802098,1.5108108764696428,75.22991667040606,1.5311639942528807,72.59982332725099,1.5102155909160044,73.56326031076466,1.5302569283006549,1.0265938648954758,1.026585953802454
492,0.0011698613285552782,2.7921555666345586,1.0011694437136365,2389.5317907992253,0.0011695441383346254,2.7917827315457417,0.9949139050469087,2374.9282891023204,2.0016434421926412,2.0016294241645247
493,0.010230386991863299,157.48117065954165,1.01022996937694,15550.946248599084,0.010230352586880969,157.4809061676344,1.010228554983781,15550.950656312581,2.0160870547605265,2.016087063415595
494,11.093888932407177,0.0424448893562421,12.093888514792255,0.0462708580394722,11.084850180904548,0.04243598615131316,11.873140911781505,0.04545378918813989,1.1642110758789752,1.1641908918469364
495,6.818692555420586e-05,3.201156247060094,1.0000677693112228,46949.956479107,6.817396428946399e-05,3.2008516488204606,0.9962303663547926,46774.24356917679,2.0001331001814804,2.000132572342398
496,65601.38691055083,0.031919242823446915,65602.38691013322,0.03191972938678036,7020.72025330984,0.0030240541383216137,7021.283020362763,0.003024296540521659,1.0000304867682674,1.0000305080217258
497,0.0025172200895424504,0.011781331253381242,1.0025168024746518,4.692073842133248,0.0025118641586474974,0.011769369811303792,0.11866999808021507,0.5560297073010484,2.000045307943352,1.997457713373005
498,49514.43210698644,0.05888397773474258,49515.43210656882,0.05888516696282495,3344.390023564855,0.011100513368088863,3344.909994555708,0.011102239226883536,1.0000403914364135,1.000040435244165
499,0.00028145817941647967,37.475051414184556,1.0002810405642257,133183.49284250208,0.00028077925315724516,37.42982080951066,0.9961057000352515,132787.7948260351,2.000537727203392,2.000533136182569
500,0.000501187681829114,0.13259567935839012,1.000500770066722,264.6954107519789,0.000496594810818054,0.1320338409373911,0.1883535109884991,50.07913286263946,2.0002094947307785,1.9967359490180765
501,0.018013500451915028,0.006350415057878826,1.0180130828369953,0.35888669321228023,0.017977419558288136,0.006342837534864488,0.1073847055683589,0.03788773683236089,1.9998138505992784,1.9978188283753864
502,1.2022265497856042,6.2516814785574555,2.2022261321706824,11.451765330371291,1.2020701395973048,6.251423689418974,2.201071562420921,11.446778731259512,1.75793087402987,1.7578735488654698
503,34.93521979437962,61.90191117598606,35.9352193767647,63.6738160241354,34.583874502464475,61.88252363001937,35.58301305286398,63.670328375562114,1.0558988555923314,1.0558868476734142
504,0.026653415766280598,0.01975369477065079,1.026652998151359,0.7608852140637092,0.026613986795353282,0.019741830310030097,0.24136913976174257,0.17904377258074788,1.9997608915545915,1.9974863649164765
505,0.0006060462436301009,0.009937903880577664,1.0006056286286464,16.407861057127075,0.0005962047432946057,0.009850912935254098,0.015618734535255387,0.25806368667151003,2.0000178668226836,1.9843531307164544
506,557.5532807395837,5.299597382376949,558.5532803219687,5.309102474270869,71.72109413105342,5.234762130152776,72.41295442574315,5.285259464498795,1.0035807356831148,1.0035411762699546
507,48.80971644990922,32.58310069273004,49.8097160322943,33.250653988577994,48.35506343976612,32.576364055556205,49.353960269407466,33.24931171525417,1.0403414328860203,1.0403348695663062
508,0.05925856389821113,11.622654184750896,1.0592581462832906,207.75716312967577,0.05925721080655368,11.622539786037159,1.0591317802487752,207.7350770825738,2.0169167887903696,2.0169069719639094
509,0.02843502242649092,0.07948703812791251,1.0284346048115691,2.8748780084858896,0.02843321662008864,0.07948544829847887,0.9829303807840197,2.7477954044641177,1.9997853626944981,1.9996481367582435
510,0.027143677774057667,0.003541434411061647,1.0271432601591368,0.13401133467971607,0.027043905026878416,0.003532275128417612,0.0670536456230394,0.008758051933276204,2.0001279685732496,1.9968003381734984
511,0.00024707893480686865,1.1658570869639442,1.000246661319968,4719.725134493702,0.00024651228007079517,1.164523779683068,0.8872218230740003,4191.235059473378,2.0004072475739907,2.0003432366760947
512,4561.333375857311,0.5167104064713641,4562.333375439695,0.5168236869856585,2197.1010111720025,0.14074332170949316,2198.0192998431594,0.14080214604083235,1.000438387947787,1.0004383313299856
513,0.2852844108101594,0.01297938973160497,1.2852839931952371,0.05847568682810206,0.2851399757492564,0.012980141472675353,0.6688175388527965,0.030445910822935466,1.9686173204710014,1.9692709418206844
514,0.058622734945890535,14.346824829556173,1.0586223173309688,259.07813685978346,0.05843946912035453,14.326968949244737,1.0447227244670902,256.12330603457,2.020389948161158,2.019303442553801
515,0.0764179243583367,0.09406440750524647,1.076417506743416,1.3249846269744707,0.07491123222256059,0.09357249837032941,0.14770687904980537,0.1845023942218891,1.9974693888197173,1.96525326219692
516,0.07007705566702979,0.05173729014718786,1.0700766380521092,0.790028419083205,0.0700718435272378,0.05173579041493435,0.9946238624221037,0.7343556141485019,1.9978433258721198,1.9976864753028483
517,4.5037198638858537e-10,0.00010795171028938259,0.999999807758654,239694.5032088624,4.5017881563329473e-10,0.00010790579088072811,0.1897440065901577,45480.765386941464,2.0000000013507098,1.9999999975631833
518,0.0020781299450023825,230.97696523574032,1.0020777123301117,111377.47640902073,0.0020781281659675442,230.97686633747128,1.0020774699458603,111377.49712742753,2.003162695376579,2.003162695858427
519,0.0006415244858962869,0.27089758781047485,1.000641106871095,422.54234729117786,0.0005275338254472404,0.24655506027484822,0.01989640147679946,9.299040608829136,2.000380742225443,1.9385418553821319
520,3352.064293107401,0.07971908304731651,3353.0642926897863,0.07974286512390714,1591.5865552771706,0.028316357762232423,1592.1400978197469,0.028326205991108345,1.0005964833367096,1.0005963518903869
521,315.62549314029167,0.5405554141674812,316.6254927226767,0.5422680615935344,301.3014974092942,0.48714150602117123,302.25028495191964,0.4886754970447234,1.0063176289642661,1.0063167092237386
522,5.277316287986991e-06,0.15968710808757364,1.0000048597234044,30259.297606674703,5.276492220249869e-06,0.1596741745202807,0.9424166381654383,28518.870581433064,2.000010222366464,2.000009565315336
523,0.0011786521359638715,74.95050131082823,1.0011782345210374,63664.93411347096,0.0011782498034172409,74.93771180393219,1.0008820502034037,63656.96850560914,2.0021457972586156,2.0021454444692326
524,0.00016870649744174577,10.10911194087693,1.00016828888225,59931.379913315184,0.00016870394562396704,10.109035483691152,1.000071118974347,59926.01056563635,2.000328506646541,2.000328474356834
525,0.0027301557363365626,33.31401707443164,1.0027297381214444,12235.549486141159,0.002730133339260856,33.31388074725679,1.0027137401817994,12235.404580311091,2.004873815283073,2.0048737452961447
526,0.020526641968408213,12.977495943441006,1.0205262243534872,645.2041672040511,0.02052531744387937,12.977100330170344,1.0202047656891828,645.0228912593215,2.015371466856027,2.015360953995299
527,12194.602088275393,0.029228786815387143,12195.602087857778,0.029231183677080327,6897.293880252032,0.002816518040820943,6897.998082244138,0.0028168056025298658,1.0001639948567844,1.0001639969765717
528,0.004234936844002135,0.05507854958325615,1.0042345192290751,13.060827775723055,0.004118314459357514,0.05460478625877703,0.036489614761602424,0.48381628804354593,2.0000993601340085,1.9597828997859528
529,0.00012986899735325022,0.02642011668878146,1.0001294513832402,203.46300770736556,0.00010763133370492257,0.023822468769772776,0.002547552429469342,0.5638598547591586,2.0000442594617893,1.9256705513300971
530,0.1832330876355995,363.1734824697793,1.1832326700206781,2345.2026863074966,0.1801265860920551,360.0917924840345,1.1772631537661742,2353.471569424072,2.1203189720338202,2.12132460239635
531,0.03348114646015117,0.007435032024511604,1.0334807288452317,0.2295011709000241,0.03347341713678159,0.00743375844623045,0.514889391193454,0.11434635863492264,1.9996312351528143,1.9993618575556447
532,1.7492401721294788e-08,0.00411674059405136,0.9999995985447917,235344.40878709056,1.74875440515641e-08,0.004115820631162941,0.3686032734194039,86753.46023320445,2.000000035162547,1.9999999693647763
533,2.052438958774082,126.84141925505268,3.0524385411591597,188.64173041263535,2.04772960196038,126.7525647193352,3.0470015635110537,188.606573108632,1.6388295799019568,1.6386394914377345
534,0.8602566452457693,0.27815354074562826,1.8602562276308479,0.6014912634145334,0.8600740042583309,0.27813056868495006,1.8225978092032316,0.5893913345221639,1.8344321145397167,1.8342242136925502
535,4286.818810793036,0.1829513889040223,4287.818810375421,0.1829940665446168,3292.2277551838306,0.0349896252282677,3293.1579271197515,0.03499951104718909,1.0004664582125062,1.0004664392926244
536,134401.28369914173,0.011141993128838863,134402.28369872412,0.011142076029747018,15685.827812164778,0.0004855249233904953,15686.331487122376,0.0004855405136894664,1.0000148807150175,1.0000148910051867
537,500.9830736448467,1.0659185591336786,501.9830732272317,1.06804621208258,226.90924213972121,1.0140930899286218,227.6040563689474,1.0171983239948856,1.00398534812069,1.0039762886319428
538,0.2761121205760829,899.2561835343982,1.2761117029611608,4156.106357715023,0.2761061422887279,899.2465215449996,1.276104279372618,4156.127512565531,1.9794347861483794,1.9794372893955448
539,6.914243290148508,0.5699395438727171,7.9142428725335865,0.6523692880891977,6.910049950766299,0.569882590439852,7.888556795070683,0.6505815751314847,1.248809047337631,1.24877736341311
540,0.06407611458382395,1.155743209863819,1.0640756969689011,19.1927720577393,0.06403534304809463,1.1555428066649394,1.0302828591115119,18.591857090268512,2.0002391941946334,1.9993462959654635
541,0.00329924509488097,4.587781175565565,1.0032988274799515,1395.1420224345559,0.0032988798976207024,4.587534175250845,1.0017373250353614,1393.0498702115722,2.003812928029446,2.0038034042903794
542,15.37669283602935,21.72839935332765,16.37669241841443,23.14147240557148,9.64704085858843,20.88707729639167,10.415729171529279,22.551385807631636,1.1225961420696569,1.118582053098161
543,0.03637768600475125,0.005720282019813107,1.0363772683898285,0.16296721713797466,0.036322362124424024,0.00571550504608803,0.14608306232734702,0.022986899283141928,1.9993181219954541,1.9982052440918736
544,0.09646863252615381,0.01598190636811248,1.0964682149112324,0.18165129832820912,0.09645459201808106,0.015980414499194767,0.803777032227918,0.13316825950108147,1.99531111173253,1.995499474301745
545,0.26157815408849283,0.6624135774410889,1.2615777364735712,3.194785988721267,0.26110315110208976,0.6620769363225063,1.120054598782181,2.840112477178393,1.9746801579838416,1.9723059563380014
546,1559.913519719044,1.6415034471806706,1560.913519301429,1.6425557508763011,828.1320964313047,0.9348210142702482,829.0691272762966,0.9358787635456266,1.001281401292504,1.0012807929454173
547,46.58031248124027,55.3954702175422,47.58031206362535,56.584716148553866,44.15839318357813,55.325736471858846,45.154447724687834,56.573686115858294,1.0420966512393868,1.042058889480686
548,0.018265136287501163,476.6251069581265,1.0182647186725842,26571.41577318089,0.012385521225300393,389.87971368846365,0.9520666116265185,29969.789014211634,2.0179390309693734,1.949785903227375
549,3.5854537729601504e-07,0.007768037498767482,0.999999941220281,21665.422381812303,3.5854390592956425e-07,0.007768014359006763,0.9815518742370611,21265.761116244885,2.0000006852773997,2.0000006729393465
550,16.58107512691013,35.3683589167559,17.581074709295205,37.5014138529223,16.06148244263433,35.29480094198565,17.052134987195824,37.47174099019422,1.1146204492366307,1.1144379507540036
551,36.781745591009155,76.50120803000658,37.781745173394235,78.58107604205276,22.445274816961742,75.11267038283049,23.405176342423854,78.32496194397126,1.0529069764769594,1.0522742295652923
552,0.004833920919408629,0.10536425119320286,1.0048335033044773,21.902205562450803,0.004832405432903523,0.10535443257499356,0.8507983697630955,18.548811917104313,2.000196438550429,1.999751877106906
553,1.88625596870345,47.99517768615247,2.886255551088528,73.43984608693181,1.08269802576346,39.634032487987774,1.691198393685091,61.90924014263572,1.6421557189516356,1.535832976155168
554,38143.85507796219,0.07300579477055576,38144.85507754457,0.07300770872928208,11336.41349015938,0.004365013104281177,11337.271443524938,0.004365343453706661,1.0000524317581,1.0000524407576783
555,41.72743062617917,40.9620305719784,42.72743020856425,41.943687310745446,41.51075348085755,40.95652477948656,42.510187433812206,41.9426148411503,1.0470540073098673,1.047049228547718
556,89.7620388139437,0.25093618806497375,90.76203839632878,0.25373175829249955,82.82857235243418,0.25061694451231264,83.41423481031954,0.25238900132244657,1.0220347105046528,1.0220145249010166
557,75.09913747991146,22.66684450197293,76.09913706229653,22.96867000618759,68.79515863296233,22.636688899069167,69.78505275238882,22.962408407094827,1.0263624096049402,1.0263339664708109
558,0.0014841559944403537,2.7476466303182145,1.0014837383794728,1854.0661691795194,0.001483908484675519,2.7474220463198566,0.9975656495284427,1846.969598509397,2.001920601963398,2.0019095349320173
559,516.6853047870177,0.01590211865255448,517.6853043694028,0.0159328958236183,501.02602037579857,0.011954215062929825,501.6016985320586,0.011967950438353645,1.0038633875155571,1.0038630964587485
560,4.485550592921079,11.841382346753095,5.485550175306157,14.481276191736749,4.268847930905938,11.729629104172064,5.163428919164604,14.187693520088374,1.3552258483520778,1.3517612081086223
561,3.1745950693442686,0.15523926726419598,4.174594651729347,0.20413974088145864,3.1734549538170995,0.15521948636527222,4.103274771622752,0.20069867438980865,1.45316480986543,1.4530961845511088
562,2369.2768296690497,0.7775471708479685,2370.2768292514347,0.7778753498249441,1214.92407875056,0.3399225995067011,1215.8327748534764,0.34017684283504357,1.0008438667970723,1.0008436088282342
563,0.0004993040584959151,0.22164874061893844,1.0004988864435647,444.13682283874454,0.0004992974367930208,0.22164734454584245,0.996734538809749,442.46885216013567,2.0003069202714214,2.0003036463176582
564,0.04211472756869003,0.005510552716473719,1.0421143099537684,0.13635671350896256,0.04209584509107188,0.005508514561965102,0.33372649677502986,0.043670278223936765,1.999575133043021,1.998802068469872
565,0.019955492574467222,0.17601942928696893,1.0199550749595427,8.99661632118442,0.019898480114270967,0.17589581205974147,0.5162275390344073,4.563276273595218,2.0001464454859628,1.9954480823744496
566,0.6397576739601867,0.1200346339174574,1.6397572563452645,0.3076597124040862,0.6386829057823052,0.11997252170785337,1.2152319081239922,0.2282735848376936,1.8889533260071067,1.887805375705051
567,481.99261793677186,1.0959278967108264,482.99261751915697,1.0982016399140444,361.395515046361,0.9364139447156072,362.28625952194596,0.9387219577190589,1.0041420811557689,1.0041393694949878
568,0.5863449407801687,830.1746592184251,1.586344523165247,2246.020955121483,0.5844436711192714,828.9252447325867,1.584226228154299,2246.9318751791056,1.912464640561799,1.9128307444727277
569,54.53969775875127,51.3615693697583,55.539697341136346,52.30329713927384,51.835725600528086,51.3091591244917,52.83224374440505,52.295554268425114,1.036017328453686,1.0359905921071175
570,12054.324844167679,0.24402293355661833,12055.324843750064,0.2440431771484249,1942.2546869046266,0.07370510535604385,1942.9981545319906,0.07373331862805865,1.0001659019103593,1.0001659155842317
571,7.986151456749594e-06,0.012239865261419843,1.000007568538543,1532.6478549273047,7.91260507562593e-06,0.012164912410301007,0.029975405386714747,46.08446617864398,2.0000096897908937,1.9995001833375474
572,8.367303562603473e-05,0.008958953063405639,1.0000832554214103,107.07988395284816,6.335543098031584e-05,0.007445889009750435,0.000800811003681951,0.09411584388172255,2.0000162211200836,1.888790683642623
573,0.05423732072977164,3.5463367909062793,1.0542369031148513,68.93185477348038,0.05356701811305463,3.530721886872667,0.8698640471926534,57.334683508885796,2.0050092193942635,1.993964715167692
574,55729.89350933403,0.05161048343861699,55730.893508916415,0.05161140952080799,5456.121891013916,0.006204010418063085,5456.73742428244,0.006204710324496055,1.0000358867339108,1.0000359134647128
575,8.59432087172229,3.0175025460142013,9.594320454107368,3.368606644976637,8.044191585639796,2.993779670834721,8.758623202745152,3.2596672779013893,1.2065011249266786,1.20492318525706
576,3062.796073438464,0.3393921775140562,3063.7960730208492,0.33950298869039347,2147.9906220893668,0.09424217623390678,2148.9166915055475,0.09428280713621474,1.000652832619834,1.0006527695148952
577,106438.44661221991,0.027263758863745335,106439.4466118023,0.027264015009417747,9690.796154953008,0.0018968956682818726,9691.394677794106,0.0018970128243304047,1.0000187900161788,1.0000188067876323
578,23.04964215615526,0.34716226815701046,24.04964173854034,0.3622237654603063,22.947969391474956,0.34709089771544493,23.85862686481462,0.3608647055212966,1.0830276380217567,1.083012342152776
579,116323.961468725,0.025024239558598622,116324.96146830739,0.025024454683915814,16280.131332731456,0.0010515656030990984,16280.839743364726,0.0010516113607308762,1.0000171932043063,1.0000172027358476
580,14723.302280039501,0.17243723798665353,14724.302279621885,0.1724489498406041,3477.067330295543,0.031391330553268156,3477.868378080985,0.03139856249715451,1.000135830950488,1.0001358445160864
581,678.716122539355,0.6066068061901836,679.71612212174,0.6075005621106891,637.1763388878368,0.40386351368631934,638.1464759891251,0.404478418783341,1.0029429112096793,1.0029426480663506
582,996.5647175541939,1.6154587138822842,997.5647171365789,1.6170797406061757,315.23995820009054,1.435739506516121,316.0328344511353,1.4393506088773285,1.0020053790042658,1.0020014993402966
583,92.26251848494688,0.031601346050631834,93.26251806733195,0.03194386144444903,91.54621990538695,0.03158059774619253,92.20919508084954,0.03180930355571295,1.0214431953063305,1.0214402546043568
584,67.23714312143505,0.25624090003781036,68.23714270382014,0.2600519006415243,66.9908216967967,0.25621794304796236,67.95208691803842,0.2598944675549289,1.0293059490221044,1.029304314592303
585,0.13071353576708086,855.8447171332912,1.1307131181521588,7403.325471114271,0.13071183190597077,855.8390969494834,1.1307104645959731,7403.355984080158,2.0142025498409604,2.0142035785546923
586,17.973327979028532,2.589108047323101,18.973327561413612,2.733160777518307,17.924697758393215,2.5886844776416917,18.914724743531202,2.7316641542542612,1.1052242565159511,1.105208301720812
587,185.5225952535251,0.6807340271050943,186.52259483591018,0.684403303841387,176.5297076998339,0.6674090753741765,177.45754337627864,0.6709169605850221,1.0107245954220518,1.0107217268248612
588,5.9088688562523955e-05,0.04163981678543199,1.0000586710725439,704.741649395046,5.907879002018042e-05,0.04163603274475573,0.8153433671026248,574.6167638048828,2.00004883729134,2.000024352302503
589,3.0011403546924162,0.014133946543676298,4.001139937077495,0.01884346991502755,2.9997653199288288,0.014130992633507375,3.527143559012379,0.01661531297751967,1.4709235171015578,1.4707667717284383
590,1.6896489946022188e-05,0.006240827376868612,1.0000164788752588,369.3625266917477,7.386168340119807e-06,0.003239060593117678,0.00015869036390683675,0.06959057532525739,2.0000090755240834,1.8755678605537824
591,1.6700524436993194,487.16812996116704,2.670052026084398,778.8762905943535,1.6676095227109247,486.92059843968786,2.6674791859825375,778.869719724658,1.7142764558082093,1.7142879389398291
592,1331.4215289874446,0.013419397562287126,1332.4215285698297,0.013429476558056671,1226.1658513000225,0.005828190339933526,1226.6828140381472,0.005830647558288817,1.0015010359381593,1.0015009672127302
593,257186.9278438034,0.011614813414559565,257187.92784338578,0.011614858575519579,16448.470331325017,0.00048315878746380214,16448.981757629583,0.0004831738101442224,1.0000077764084174,1.00000778721181
594,0.531751239690782,849.6544747007712,1.5317508220758602,2447.4958269211543,0.5316811318748577,849.601824183836,1.5316719948469644,2447.540909124394,1.9221797659304012,1.9221953206753992
595,0.02944285235001761,19.093868866387673,1.0294424347350966,667.5996816020112,0.029441779547080712,19.093538897965903,1.0293189160346994,667.5323660478041,2.022052609108059,2.02204702820757
596,0.3785034472229755,862.405177299215,1.3785030296080536,3140.864788362951,0.3770068538917549,860.7429678998606,1.3767378489361757,3143.225142675078,1.9650948110295787,1.965571645368038
597,0.00024519258497548524,0.5816325777178689,1.0002447749700583,2372.726511582035,0.0002449202331802375,0.5813115466125309,0.8908065736517776,2114.3052998853186,2.0003448007175497,2.000285823739456
598,0.12375129163466782,104.59398801900262,1.1237508740197453,949.788756957409,0.12357193946359392,104.5200473889193,1.1227148220450733,949.6185534820796,2.088941014381677,2.088886844582468
599,392.34933765755227,0.08907484443851166,393.34933723993737,0.08930187376847391,356.84426936088965,0.07645375695302474,357.48862063981386,0.07659180898384332,1.005084642394521,1.0050833941226895
600,2.750887509319611,162.53142665988963,3.7508870917046893,221.61467097057402,2.6912530614668304,161.58110180363687,3.6864381097943397,221.33137163505177,1.5362942868609406,1.5351305027940292
601,6.381102937954106e-11,1.6583390950972998e-05,0.999997662105327,259882.2232143547,6.380864074425472e-11,1.6582770986338874e-05,0.7257817609806536,188618.2276886627,1.9999999998941613,2.000000000375369
602,32514.071535296385,0.03606810547089113,32515.07153487877,0.036069214777991264,7369.854980498662,0.003262951329107681,7370.493056438863,0.003263233832731247,1.0000615103308879,1.0000615246260378
603,77.98179453666252,37.120065612799394,78.98179411904759,37.596074793294136,58.166239161028635,36.949760251843074,59.14438459274529,37.57112136637738,1.0253210135129867,1.0252297850142782
604,2.6397299296568564,303.9032258535758,3.6397295120419346,419.0298134354194,2.6016812615312017,302.68042463274884,3.5999451338752952,418.8187607326949,1.5557549770491323,1.5553722592702288
605,0.23325163748978148,0.9493449820100595,1.2332512198748593,5.019389658935505,0.23319851086524068,0.9492859457387267,1.2189085758003522,4.961836059134766,1.9800023710382266,1.9796939180850261
606,1.8470645130561474e-05,0.015274472449670607,1.000018053031225,826.9742660436442,1.8470098099026147e-05,0.015274187570257954,0.9185307909427828,759.5959433836031,2.0000166529006993,2.000013677417055
607,8.915903083220863e-05,0.08883490446378374,1.0000887414159365,996.4530454148461,8.699093329895233e-05,0.08771315817680826,0.055629109225546536,56.09095881253262,2.0000889916321416,1.9970560874275678
608,0.03888592187716282,0.005988127917663773,1.0388855042622416,0.15998024454661144,0.0388305225972855,0.005982796433161462,0.1574554368585452,0.024259880192419495,1.999673103779317,1.9977383037725958
609,8.10404962315212e-09,0.002590083470754978,0.9999995852587868,319603.4719655614,8.103778699200932e-09,0.0025900093255205995,0.8057498491851139,257521.79333722912,2.0000000160746194,2.000000012781765
610,0.006546159771423248,0.007702005761116832,1.0065457421565123,1.1842700721665347,0.006542425201600387,0.007699602144071932,0.2825013813649977,0.33246818643477055,1.9999283139265156,1.9993833234565586
611,1.799992647928591e-07,0.002944633994244813,0.9999997623473152,16359.14067667602,1.7958350762986382e-07,0.002938902408976371,0.05860771082840991,959.1211621348319,2.000000350069881,1.9999943360315715
612,36520.641896940055,0.0567797734467172,36521.64189652244,0.05678132817705011,5673.785312534752,0.006579571073616221,5674.447047682812,0.006580338450807768,1.000054762325493,1.000054783584921
613,36256.26121302373,0.0775974038971063,36257.26121260612,0.07759954414458067,2503.629342520522,0.018891244814173803,2504.146332026661,0.018895145781126443,1.0000551614070485,1.0000552143270283
