,MyoV Time (s),MyoV Disp (um),MyoXI Time (s),MyoXI Disp (um)
0,0.0,0.0,0.0,0.036
1,0.0,0.036,0.0,0.072
2,0.0415146022405537,0.036,0.005621653380067038,0.072
3,0.042786368727284696,0.036,0.006491297248440553,0.072
4,0.04312465092703377,0.036,0.0069387960334257315,0.072
5,0.04312465092703377,0.072,0.0069387960334257315,0.108
6,0.06892365444200976,0.072,0.011151563625175775,0.108
7,0.07348134675644502,0.072,0.011577092722875548,0.108
8,0.07363167882429167,0.072,0.011703954468186062,0.108
9,0.07363167882429167,0.108,0.011703954468186062,0.144
10,0.15353859434775075,0.108,0.011957182366641561,0.144
11,0.15482505190166762,0.108,0.012770737433744905,0.144
12,0.1548448381080263,0.108,0.01301390044210926,0.144
13,0.1548448381080263,0.144,0.01301390044210926,0.18
14,0.17288946070073763,0.144,0.021868105474761812,0.18
15,0.17449617734630607,0.144,0.0224404398019189,0.18
16,0.17452627378136754,0.144,0.02252148916116159,0.18
17,0.17452627378136754,0.18,0.02252148916116159,0.216
18,0.1961141005324052,0.18,0.034772095849517015,0.216
19,0.19673431738817726,0.18,0.03477855757075066,0.0
20,0.19690488338563483,0.18,0.03692244069921902,0.0
21,0.19690488338563483,0.216,0.038580057626155906,0.0
22,0.2821141739492887,0.216,0.050591228276065436,0.0
23,0.28400409323652553,0.216,0.0567649198828013,0.0
24,0.284214924170179,0.216,0.06000733791953561,0.0
25,0.284214924170179,0.252,0.06130553773719605,0.0
26,0.35210077523188943,0.252,0.06131827218188768,0.0
27,0.3560313031314877,0.252,0.06131827218188768,0.036
28,0.35659342274801276,0.252,0.06686919326487129,0.036
29,0.35659342274801276,0.288,0.06756050886019871,0.036
30,0.39208385894876585,0.288,0.06779774144761053,0.036
31,0.39240926289891576,0.288,0.06779774144761053,0.072
32,0.3928597390654289,0.288,0.06830002727999052,0.072
33,0.3928597390654289,0.324,0.06877826588870661,0.072
34,0.45531685652628795,0.324,0.06921057809444875,0.072
35,0.45852739754253946,0.324,0.06921057809444875,0.108
36,0.4595145730062171,0.324,0.07385226954499569,0.108
37,0.4595145730062171,0.36,0.07451512565188168,0.108
38,0.4720825647464295,0.36,0.075052454641229,0.108
39,0.4733811991597747,0.36,0.075052454641229,0.144
40,0.5435973367255897,0.36,0.07765889359803424,0.144
41,0.5436221424283048,0.36,0.07850453366115762,0.0
42,0.5436878799008866,0.36,0.08878736969571843,0.0
43,0.5436878799008866,0.396,0.0958942896228212,0.0
44,0.671192255470821,0.396,0.09815766091052414,0.0
45,0.6724195561685988,0.396,0.10756643940521471,0.0
46,0.6727300582399138,0.396,0.11503311826450968,0.0
47,0.6727300582399138,0.432,0.1153486194817539,0.0
48,0.8087714523395988,0.432,0.11570446953050251,0.0
49,0.8102836152160222,0.432,0.11570446953050251,0.036
50,0.8109218907947664,0.432,0.11759110952296314,0.036
51,0.8109218907947664,0.468,0.11814259073335798,0.036
52,0.8375995634852984,0.468,0.11943221235072343,0.036
53,0.8396361564237793,0.468,0.11943221235072343,0.072
54,0.8398201202608604,0.468,0.12045858290091349,0.072
55,0.8398201202608604,0.504,0.12159245740166291,0.0
56,0.8612632479471003,0.504,0.12211694707036003,0.0
57,0.8643485454777036,0.504,0.13009706332996895,0.0
58,0.8643851962420115,0.504,0.13031623544344395,0.0
59,0.8643851962420115,0.54,0.13069855339165137,0.0
60,0.8986224530887483,0.54,0.13077425662003161,0.0
61,0.8987100252891338,0.54,0.13077425662003161,0.036
62,0.8993015144969689,0.54,0.13241387332272403,0.036
63,0.8993015144969689,0.576,0.13412137370679034,0.036
64,0.9453870294940145,0.576,0.13453872578323178,0.036
65,0.9485715831044672,0.576,0.13453872578323178,0.072
66,0.9485877295632292,0.576,0.13561809545511316,0.072
67,0.9485877295632292,0.612,0.1358917707659799,0.0
68,1.0028774937313187,0.612,0.14604458524094177,0.0
69,1.0068647953154652,0.612,0.14727278546673528,0.0
70,1.0069537877748829,0.612,0.14818249683334894,0.0
71,1.0069537877748829,0.648,0.1489330337864585,0.0
72,1.0566297213377496,0.648,0.149023527650467,0.0
73,1.057110402448096,0.648,0.149023527650467,0.036
74,1.057458067800816,0.648,0.1503321789992036,0.036
75,1.057458067800816,0.684,0.15376871914811563,0.036
76,1.3108380902340144,0.684,0.15379443991550978,0.036
77,1.311413850660358,0.684,0.15379443991550978,0.072
78,1.3123234777175838,0.684,0.1581081794017436,0.072
79,1.3123234777175838,0.72,0.15911932261059647,0.0
80,1.320696974341594,0.72,0.16256684210881112,0.0
81,1.321157115535236,0.72,0.16344372473097302,0.0
82,1.3212022439253701,0.72,0.16407775311511585,0.0
83,1.3212022439253701,0.756,0.16407775311511585,0.036
84,1.4463579187722004,0.756,0.16409317526370693,0.036
85,1.4467187788304656,0.756,0.16419047943385756,0.036
86,1.4470670440342062,0.756,0.16420928517717748,0.036
87,1.4470670440342062,0.792,0.16420928517717748,0.072
88,1.4756379249316822,0.792,0.16943338083386283,0.072
89,1.480496882368044,0.792,0.17138465094990085,0.072
90,1.4843847864491835,0.792,0.17273418374233707,0.072
91,1.4845437304406701,0.792,0.17273418374233707,0.108
92,1.4850463868849886,0.792,0.18298330705813903,0.108
93,1.4850463868849886,0.828,0.18313291937668286,0.108
94,1.6158116912562335,0.828,0.18333965037186228,0.108
95,1.6168886277467394,0.828,0.18333965037186228,0.144
96,1.6171257098661087,0.828,0.18454804888152232,0.144
97,1.6171257098661087,0.864,0.1848608391123321,0.144
98,1.6734065989101623,0.864,0.18593066039587836,0.144
99,1.6744192677910803,0.864,0.18593066039587836,0.18
100,1.674554788070708,0.864,0.1864998923851129,0.18
101,1.674554788070708,0.9,0.18944644036813685,0.18
102,1.748155517111357,0.9,0.1898378864029331,0.18
103,1.750108018012348,0.9,0.1898378864029331,0.216
104,1.750184021848355,0.9,0.18992140749962694,0.216
105,1.750184021848355,0.936,0.1907500539873368,0.216
106,1.8587170388238903,0.936,0.19093830367760756,0.216
107,1.8653965069523153,0.936,0.19093830367760756,0.252
108,1.869752675806616,0.936,0.19506024538224587,0.252
109,1.8704700111223715,0.936,0.19609151334335628,0.252
110,1.8714241100601257,0.936,0.19623134151715327,0.252
111,1.8714241100601257,0.972,0.19848638958395792,0.0
112,1.9312883674328987,0.972,0.20281367046611098,0.0
113,1.9341358604607635,0.972,0.202932082029756,0.0
114,1.9700122796970945,0.972,0.20696981855314345,0.0
115,1.9710940097026892,0.972,0.20846777217316959,0.0
116,1.9712646005312209,0.972,0.20913660667488276,0.0
117,1.9712646005312209,1.008,0.21090919778194284,0.0
118,2.040381272268675,1.008,0.2111787594736656,0.0
119,2.0432626612645777,1.008,0.2111787594736656,0.036
120,2.044175077642926,1.008,0.21155555553673544,0.036
121,2.044175077642926,1.044,0.2116554805939943,0.0
122,2.2936227741093447,1.044,0.2137135949289357,0.0
123,2.294403117908942,1.044,0.21386203474430765,0.0
124,2.2944031638465674,1.044,0.21473395412025997,0.0
125,2.2944031638465674,1.08,0.21473395412025997,0.036
126,2.3282222357860434,1.08,0.21717992026099786,0.036
127,2.3302698558461543,1.08,0.2176954836759295,0.036
128,2.3304812151089394,1.08,0.21835405142912734,0.036
129,2.3304812151089394,1.116,0.21835405142912734,0.072
130,2.3459703787574924,1.116,0.2213452704573502,0.072
131,2.346176496619016,1.116,0.2219666738010826,0.072
132,2.3465364107672784,1.116,0.22284023408996045,0.072
133,2.3465364107672784,1.152,0.22284023408996045,0.108
134,2.4172448122903702,1.152,0.22359344629785305,0.108
135,2.4181687533209484,1.152,0.22436961296989555,0.108
136,2.4184737629673023,1.152,0.2246606330656853,0.108
137,2.4184737629673023,1.188,0.2246606330656853,0.144
138,2.4469245207196266,1.188,0.22708812723905325,0.144
139,2.4469251780629335,0.0,0.23007364336693925,0.144
140,2.551595964195023,0.0,0.23105893608193373,0.144
141,2.552688888942015,0.0,0.2315265750064981,0.144
142,2.552925601757444,0.0,0.23171858791075906,0.144
143,2.552925601757444,0.036,0.23171858791075906,0.18
144,2.6300666373165313,0.036,0.23964800007165898,0.18
145,2.630721247860663,0.036,0.24135843143338143,0.18
146,2.6314328543537755,0.036,0.24139154538749263,0.18
147,2.6314328543537755,0.072,0.24139154538749263,0.216
148,2.6517861422879534,0.072,0.24157095482433721,0.216
149,2.6522260570537313,0.072,0.24183843887759338,0.216
150,2.652879617446196,0.072,0.24214894015506783,0.216
151,2.652879617446196,0.108,0.24214894015506783,0.252
152,2.6827932588425583,0.108,0.24890746111933915,0.252
153,2.6850603356331533,0.108,0.24904537931356963,0.252
154,2.6853223820473033,0.108,0.24923177718745748,0.252
155,2.6853223820473033,0.144,0.24923177718745748,0.288
156,2.7590294451405626,0.144,0.25128186554058374,0.288
157,2.7609635057196016,0.144,0.2518809329510008,0.288
158,2.761326523788412,0.144,0.252098125342477,0.288
159,2.761326523788412,0.18,0.252098125342477,0.324
160,2.7814455759470107,0.18,0.2573937582823236,0.324
161,2.781534343783889,0.18,0.25952594824513664,0.324
162,2.781754537055477,0.18,0.2598475513589369,0.324
163,2.781754537055477,0.216,0.2598475513589369,0.36
164,2.8048309983650057,0.216,0.2607473830070397,0.36
165,2.805950160356808,0.216,0.2608184791941177,0.36
166,2.806270676794554,0.216,0.2613786583148521,0.36
167,2.806270676794554,0.252,0.2613786583148521,0.396
168,2.8267345976276843,0.252,0.27056660713972036,0.396
169,2.827540647571837,0.252,0.2724844709178109,0.396
170,2.827575283625414,0.252,0.27261176730521974,0.396
171,2.827575283625414,0.288,0.27261176730521974,0.432
172,3.0062933692576905,0.288,0.2734334626879047,0.432
173,3.0089394921350348,0.288,0.2743596672950135,0.432
174,3.0091128994410994,0.288,0.27510633289820596,0.432
175,3.0091128994410994,0.324,0.27510633289820596,0.468
176,3.13038611909289,0.324,0.27705002297380954,0.468
177,3.132940490301081,0.324,0.2775120526696986,0.468
178,3.1336716725682336,0.324,0.2775693507339927,0.468
179,3.1336716725682336,0.36,0.2775693507339927,0.504
180,3.156120532004202,0.36,0.2895033026408136,0.504
181,3.157211405045544,0.36,0.29162900176263573,0.0
182,3.157366200175943,0.36,0.2933465022567763,0.0
183,3.157366200175943,0.396,0.29372567644614556,0.0
184,3.181831715367572,0.396,0.29377184358731334,0.0
185,3.187303177497853,0.396,0.29377184358731334,0.036
186,3.1873432872474226,0.396,0.29542480490368916,0.036
187,3.1873432872474226,0.432,0.29702318342686773,0.036
188,3.2893065447841536,0.432,0.2973071273242702,0.036
189,3.289823481960184,0.432,0.2973071273242702,0.072
190,3.290307003391966,0.432,0.31252859773581143,0.072
191,3.290307003391966,0.468,0.3180545677747091,0.072
192,3.3323150691854053,0.468,0.3306873704985538,0.072
193,3.3431567243046345,0.468,0.3316293908053227,0.0
194,3.4529050698091197,0.468,0.3339748165985581,0.0
195,3.4549529619178188,0.468,0.3340806333738282,0.0
196,3.4551914089413387,0.468,0.3341269979715529,0.0
197,3.4551914089413387,0.504,0.3341269979715529,0.036
198,3.5724217091826063,0.504,0.3370304117918055,0.036
199,3.5822076454738365,0.0,0.33708119607374964,0.036
200,3.6180283001544638,0.0,0.337704599427294,0.036
201,3.622905779653827,0.0,0.337704599427294,0.072
202,3.672320450467403,0.0,0.34037816184352554,0.072
203,3.6756801388632923,0.0,0.3415389097489365,0.072
204,3.675822840299297,0.0,0.34162544449264143,0.072
205,3.675822840299297,0.036,0.34162544449264143,0.108
206,3.8548969042516745,0.036,0.34779438611631264,0.108
207,3.855377526472836,0.036,0.35095701914712407,0.108
208,3.8557654607591942,0.036,0.3532687895310396,0.108
209,3.8557654607591942,0.072,0.35402668101908397,0.108
210,3.8753425471971283,0.072,0.3540874736518216,0.108
211,3.8770788038738715,0.072,0.3540874736518216,0.144
212,3.877303310485921,0.072,0.35838403264521634,0.144
213,3.877303310485921,0.108,0.3588855197798253,0.144
214,3.9216878654561427,0.108,0.3590100521156119,0.144
215,3.923449082278111,0.108,0.3590100521156119,0.18
216,3.923674882603791,0.108,0.35991197313180034,0.18
217,3.923674882603791,0.144,0.36285639901709477,0.18
218,4.049268138841448,0.144,0.3632421275839137,0.18
219,4.05247977798664,0.144,0.3632421275839137,0.216
220,4.052750974394861,0.144,0.3642626623698231,0.216
221,4.052750974394861,0.18,0.36777643928014836,0.216
222,4.099935678360104,0.18,0.3689102298942766,0.216
223,4.100488095373322,0.18,0.3689102298942766,0.252
224,4.100581407414204,0.18,0.36899310460378043,0.252
225,4.100581407414204,0.216,0.36985319885789725,0.252
226,4.297558015718501,0.216,0.37007865152297903,0.252
227,4.298667503877745,0.216,0.37007865152297903,0.288
228,4.367587225674612,0.216,0.37846456885921853,0.288
229,4.367631847740242,0.216,0.3785757781663701,0.288
230,4.368249957273477,0.216,0.3792751814233224,0.288
231,4.368249957273477,0.252,0.3792751814233224,0.324
232,4.370600866587964,0.252,0.38210609695681086,0.324
233,4.372308709798652,0.252,0.3839636234367232,0.324
234,4.3726901332727195,0.252,0.384014768905816,0.0
235,4.3726901332727195,0.288,0.3861129730527475,0.0
236,4.433913428594458,0.288,0.38719704226644414,0.0
237,4.4379246347070165,0.288,0.39512478767251125,0.0
238,4.438123837139955,0.288,0.39655121965404305,0.0
239,4.438123837139955,0.324,0.3989569391929466,0.0
240,4.5001010448072165,0.324,0.39969662385825444,0.0
241,4.500315794638944,0.324,0.4103898094297618,0.0
242,4.500539901513015,0.324,0.41143256071943846,0.0
243,4.500539901513015,0.36,0.4114898676076244,0.0
244,4.576820589910149,0.36,0.4114898676076244,0.036
245,4.589443950524277,0.36,0.4161007909876915,0.036
246,4.602605742314793,0.36,0.41682403508371824,0.0
247,4.604210752448388,0.36,0.4257433118350873,0.0
248,4.6042824305085475,0.36,0.426605693591509,0.0
249,4.6042824305085475,0.396,0.42711411410414435,0.0
250,4.695384116311423,0.396,0.42711411410414435,0.036
251,4.696732112401797,0.396,0.4282228517262743,0.036
252,4.696798393287715,0.396,0.4289031186408385,0.036
253,4.696798393287715,0.432,0.42905744529558554,0.0
254,4.698286973748701,0.432,0.4311575648182764,0.0
255,4.700189591231975,0.432,0.43172606987326745,0.0
256,4.73857301251082,0.432,0.4329463108212943,0.0
257,4.740384128991174,0.432,0.4329463108212943,0.036
258,4.7403858566208115,0.432,0.44405921406954896,0.036
259,4.7403858566208115,0.468,0.4448216108118599,0.036
260,4.857206267873195,0.468,0.4451630710652239,0.036
261,4.859959627957309,0.468,0.4451630710652239,0.072
262,4.8604236717044955,0.468,0.4457479025850244,0.072
263,4.8604236717044955,0.504,0.4462957855477967,0.072
264,4.862093583958412,0.504,0.44692654477253324,0.072
265,4.862703569797588,0.504,0.44692654477253324,0.108
266,4.86273930174665,0.504,0.44877714012548964,0.108
267,4.86273930174665,0.54,0.4499269855660071,0.108
268,4.919283224631116,0.54,0.44993851109323035,0.108
269,4.919858935437979,0.0,0.44993851109323035,0.144
270,4.9588222909088415,0.0,0.45007101316910436,0.144
271,4.9606104520289875,0.0,0.45033370563359654,0.144
272,4.960835227977675,0.0,0.4507179075361325,0.144
273,4.960835227977675,0.036,0.4507179075361325,0.18
274,4.961964292957532,0.036,0.45358658255162787,0.18
275,4.9663876581762665,0.036,0.4537841076168192,0.18
276,4.966924794270042,0.036,0.45399188412442637,0.18
277,4.966924794270042,0.072,0.45399188412442637,0.216
278,4.9829268061739995,0.072,0.45754207325093255,0.216
279,4.991761514784926,0.072,0.4576268955105416,0.216
280,5.343531565745067,0.072,0.4576504066664402,0.216
281,5.345753588002999,0.072,0.4576504066664402,0.252
282,5.345892734422478,0.072,0.46044066228209957,0.252
283,5.345892734422478,0.108,0.4612463819986825,0.252
284,5.373400690169767,0.108,0.46159035921029634,0.252
285,5.374167305715652,0.108,0.46159035921029634,0.288
286,5.374432728272502,0.108,0.46445175271528694,0.288
287,5.374432728272502,0.144,0.4679522238533744,0.288
288,5.4236047033245285,0.144,0.4706176087094116,0.288
289,5.423945410288596,0.144,0.471265013767181,0.288
290,5.424328835707527,0.144,0.47142223630995606,0.288
291,5.424328835707527,0.18,0.47142223630995606,0.324
292,5.613268775674328,0.18,0.4756746204496425,0.324
293,5.6134342946580915,0.18,0.47652096644266617,0.324
294,5.613956391013922,0.18,0.477057839345826,0.324
295,5.613956391013922,0.216,0.477057839345826,0.36
296,5.6312840812601905,0.216,0.4816494882432272,0.36
297,5.632342686767487,0.216,0.4845132975380322,0.36
298,5.632805005286748,0.216,0.48455992665907477,0.36
299,5.632805005286748,0.252,0.48455992665907477,0.396
300,5.688488808600489,0.252,0.4886937312759869,0.396
301,5.691320936412872,0.252,0.48924367547064485,0.396
302,5.751823068705349,0.252,0.48949537004066634,0.396
303,5.7750536228818135,0.252,0.48949537004066634,0.432
304,5.81897397140289,0.252,0.4895497641327049,0.432
305,5.8201593895871895,0.252,0.4900232109423124,0.0
306,5.820350739388452,0.252,0.49102095660687173,0.0
307,5.820350739388452,0.288,0.49116368285844114,0.0
308,5.870050768550989,0.288,0.49624353214706307,0.0
309,5.87107536266744,0.288,0.4973560646954187,0.0
310,5.871133283974736,0.288,0.4976216508458462,0.0
311,5.871133283974736,0.324,0.4976216508458462,0.036
312,5.938621742731918,0.324,0.49807998427831013,0.036
313,5.939107996140585,0.324,0.49868120843253294,0.036
314,5.939364181625656,0.324,0.4995030763608481,0.036
315,5.939364181625656,0.36,0.4995030763608481,0.072
316,5.965200150219289,0.36,0.5126362427184636,0.072
317,5.9676348362169875,0.36,0.51363999201374,0.072
318,5.967670882052786,0.36,0.5136902801353669,0.072
319,5.967670882052786,0.396,0.5136902801353669,0.108
320,5.974219018160738,0.396,0.5151271109311342,0.108
321,5.974556261317112,0.396,0.5156504413539054,0.0
322,5.974813739300785,0.396,0.531991355002881,0.0
323,5.974813739300785,0.432,0.5320571173388737,0.0
324,6.055467097079735,0.432,0.5322304852125992,0.0
325,6.056059262576788,0.432,0.5322304852125992,0.036
326,6.0560780466639486,0.432,0.5448381335279153,0.036
327,6.0560780466639486,0.468,0.5464055758097235,0.036
328,6.153391381394833,0.468,0.5490853057210332,0.036
329,6.160025840896381,0.468,0.5500003991424203,0.036
330,6.1888004268645815,0.468,0.5502980583428743,0.0
331,6.190627031109379,0.468,0.5508293786163794,0.0
332,6.19134418253774,0.468,0.55168553637324,0.0
333,6.19134418253774,0.504,0.5524746703160854,0.0
334,6.1933389684055555,0.504,0.5524746703160854,0.036
335,6.1942941683827115,0.504,0.5559778285340595,0.036
336,6.194528747722124,0.504,0.5563506954192379,0.036
337,6.194528747722124,0.54,0.5583918851196588,0.036
338,6.215703438681125,0.54,0.5590200035297102,0.036
339,6.216367644073472,0.54,0.5593585612115879,0.036
340,6.216738572936066,0.54,0.5593585612115879,0.072
341,6.216738572936066,0.576,0.5616313418014309,0.072
342,6.276682052905457,0.576,0.563012269600148,0.0
343,6.278092106823472,0.576,0.5701793251822007,0.0
344,6.278313468263768,0.576,0.5720925008434321,0.0
345,6.278313468263768,0.612,0.5727393027235177,0.0
346,6.2813604984730205,0.612,0.5727393027235177,0.036
347,6.282530465199521,0.612,0.579012668810309,0.036
348,6.282565420759859,0.612,0.5793381377544513,0.036
349,6.282565420759859,0.648,0.579936495457968,0.036
350,6.311361282218513,0.648,0.579936495457968,0.072
351,6.312388959541217,0.0,0.5892718164675674,0.072
352,6.3554577484606725,0.0,0.589764715190265,0.072
353,6.357973449690341,0.0,0.5897914718884829,0.072
354,6.416622026024783,0.0,0.5897914718884829,0.108
355,6.416731841775018,0.0,0.5906497457799542,0.108
356,6.4175225189732075,0.0,0.5913185321536361,0.108
357,,,0.5918574985464176,0.108
358,,,0.5918574985464176,0.144
359,,,0.6014304489936393,0.144
360,,,0.6026378721671506,0.0
361,,,0.6053599010987174,0.0
362,,,0.6054403720221275,0.0
363,,,0.6056732651633814,0.0
364,,,0.6056732651633814,0.036
365,,,0.6089671108900401,0.036
366,,,0.6098045208709131,0.036
367,,,0.6100881857179745,0.036
368,,,0.6100881857179745,0.072
369,,,0.6110786716336847,0.072
370,,,0.6156540783286566,0.072
371,,,0.6169560636460956,0.072
372,,,0.6183761102701384,0.072
373,,,0.626042169734804,0.072
374,,,0.6271494333436713,0.072
375,,,0.6276754830712177,0.072
376,,,0.6276754830712177,0.108
377,,,0.6332619272301327,0.108
378,,,0.6334800692637188,0.108
379,,,0.6336738286913004,0.108
380,,,0.6336738286913004,0.144
381,,,0.6350286873712419,0.144
382,,,0.6352933527565687,0.144
383,,,0.6355243296035793,0.144
384,,,0.6355243296035793,0.18
385,,,0.6449960396097234,0.18
386,,,0.6462387391151205,0.18
387,,,0.6468735918922723,0.18
388,,,0.6468735918922723,0.216
389,,,0.6492860348592551,0.216
390,,,0.6497090681677191,0.216
391,,,0.6508167529405977,0.216
392,,,0.6508167529405977,0.252
393,,,0.6538402918429549,0.252
394,,,0.6550031829803604,0.252
395,,,0.6565050812216677,0.252
396,,,0.6565050812216677,0.288
397,,,0.6577475869141978,0.288
398,,,0.6579593833679382,0.288
399,,,0.6586268655113825,0.288
400,,,0.6586268655113825,0.324
401,,,0.659134986930213,0.324
402,,,0.6612520119996006,0.0
403,,,0.6626400285753187,0.0
404,,,0.6627949195547886,0.0
405,,,0.6628719743302467,0.0
406,,,0.6628719743302467,0.036
407,,,0.6659434944533107,0.036
408,,,0.6662972063856074,0.036
409,,,0.6664693139604774,0.036
410,,,0.6664693139604774,0.072
411,,,0.6669380973714194,0.072
412,,,0.6671821129450866,0.072
413,,,0.6681831869451313,0.072
414,,,0.6681831869451313,0.108
415,,,0.6701440607484539,0.108
416,,,0.6708849774151648,0.0
417,,,0.6767773464150153,0.0
418,,,0.6769061563048648,0.0
419,,,0.6770995753984952,0.0
420,,,0.6870031034366049,0.0
421,,,0.6885181830512384,0.0
422,,,0.6885239306800521,0.0
423,,,0.6885239306800521,0.036
424,,,0.6947049786608623,0.036
425,,,0.6971531461417726,0.036
426,,,0.6981783193768649,0.036
427,,,0.6981783193768649,0.072
428,,,0.6983162526234734,0.072
429,,,0.6996456954204087,0.0
430,,,0.7006922916524196,0.0
431,,,0.7043072440381337,0.0
432,,,0.706623105619058,0.0
433,,,0.7066874372072025,0.0
434,,,0.7072774439246841,0.0
435,,,0.7072774439246841,0.036
436,,,0.7273287417746461,0.036
437,,,0.7273482344032001,0.036
438,,,0.727997155847036,0.036
439,,,0.727997155847036,0.072
440,,,0.7327830276658798,0.072
441,,,0.7344728084075003,0.072
442,,,0.7344952874826607,0.072
443,,,0.7344952874826607,0.108
444,,,0.7374699615759921,0.108
445,,,0.7383971489389634,0.108
446,,,0.7385302694505054,0.108
447,,,0.7385302694505054,0.144
448,,,0.7403605005632539,0.144
449,,,0.7413443637818427,0.144
450,,,0.7419051647461679,0.144
451,,,0.7419051647461679,0.18
452,,,0.7462924971583877,0.18
453,,,0.7467137776273489,0.18
454,,,0.74914041918852,0.18
455,,,0.74914041918852,0.216
456,,,0.756669717951862,0.216
457,,,0.7568712024367921,0.216
458,,,0.7571268020754163,0.216
459,,,0.7571268020754163,0.252
460,,,0.7632358831994193,0.252
461,,,0.7639450639930265,0.252
462,,,0.7639461095994919,0.252
463,,,0.7639461095994919,0.288
464,,,0.7646872130978863,0.288
465,,,0.7680257834827691,0.288
466,,,0.7722182769402153,0.288
467,,,0.7725726668301052,0.288
468,,,0.7728847148120304,0.288
469,,,0.7728847148120304,0.324
470,,,0.7827229036359933,0.324
471,,,0.7843175670492899,0.0
472,,,0.7846753634090815,0.0
473,,,0.7860738926432767,0.0
474,,,0.7861530259960139,0.0
475,,,0.7861530259960139,0.036
476,,,0.7867252226602037,0.036
477,,,0.7870925697722191,0.036
478,,,0.7883755919492383,0.036
479,,,0.7883755919492383,0.072
480,,,0.7894429794561111,0.072
481,,,0.7903945693052208,0.072
482,,,0.7908809523635103,0.072
483,,,0.7908809523635103,0.108
484,,,0.8061781367457748,0.108
485,,,0.8068706285430274,0.108
486,,,0.8070785185844862,0.108
487,,,0.8070785185844862,0.144
488,,,0.8117179042059144,0.144
489,,,0.8123601454659699,0.144
490,,,0.812672699886015,0.144
491,,,0.812672699886015,0.18
492,,,0.8131810580857577,0.18
493,,,0.8132956989595019,0.18
494,,,0.8134659898067609,0.0
495,,,0.8150194708586467,0.0
496,,,0.8155744677764698,0.0
497,,,0.8160075527428727,0.0
498,,,0.8160075527428727,0.036
499,,,0.8240816795926165,0.036
500,,,0.8243239574256966,0.036
501,,,0.8243933119686666,0.036
502,,,0.8243933119686666,0.072
503,,,0.8255729166300254,0.072
504,,,0.8260048542079153,0.072
505,,,0.826457075871093,0.072
506,,,0.826457075871093,0.108
507,,,0.8275887988822932,0.108
508,,,0.8280811768273146,0.108
509,,,0.8280954688156097,0.108
510,,,0.8280954688156097,0.144
511,,,0.8322561305658391,0.144
512,,,0.8324377164821204,0.144
513,,,0.8331382331357622,0.144
514,,,0.8331382331357622,0.18
515,,,0.8349055490379902,0.18
516,,,0.8379297010124143,0.18
517,,,0.8379735364079304,0.18
518,,,0.8379735364079304,0.216
519,,,0.8384147911351336,0.216
520,,,0.8415035617568982,0.216
521,,,0.8416220166993256,0.216
522,,,0.8416220166993256,0.252
523,,,0.8492791591325934,0.252
524,,,0.8543184749196788,0.252
525,,,0.8621119973286442,0.252
526,,,0.8626778453974344,0.252
527,,,0.8628431937725649,0.252
528,,,0.8628431937725649,0.288
529,,,0.8634157366497552,0.288
530,,,0.8640772897101021,0.288
531,,,0.8642804150174586,0.288
532,,,0.8642804150174586,0.324
533,,,0.8680249879283837,0.324
534,,,0.8680343253475487,0.0
535,,,0.8744665642506666,0.0
536,,,0.8748664357208815,0.0
537,,,0.8767115466048674,0.0
538,,,0.8783772480894347,0.0
539,,,0.8784783976416568,0.0
540,,,0.8784783976416568,0.036
541,,,0.8793201093471614,0.036
542,,,0.8808626449434778,0.036
543,,,0.8838672240919747,0.036
544,,,0.8842564568657147,0.0
545,,,0.88934046133273,0.0
546,,,0.8897014552688782,0.0
547,,,0.8898678906338064,0.0
548,,,0.8898678906338064,0.036
549,,,0.8907751366870729,0.036
550,,,0.8923037314832518,0.036
551,,,0.8926558764934791,0.036
552,,,0.8935535505346008,0.036
553,,,0.8947159738867514,0.036
554,,,0.8947159738867514,0.072
555,,,0.9008928724919913,0.072
556,,,0.9010025164775515,0.072
557,,,0.9019839597532977,0.072
558,,,0.9019839597532977,0.108
559,,,0.9058382005836974,0.108
560,,,0.9059629718395419,0.108
561,,,0.9059999652686335,0.108
562,,,0.9059999652686335,0.144
563,,,0.9123831195986538,0.144
564,,,0.9126352806085949,0.144
565,,,0.9126592900366584,0.144
566,,,0.9126592900366584,0.18
567,,,0.9136002482335188,0.18
568,,,0.9165183206481595,0.18
569,,,0.9317595799189293,0.18
570,,,0.933468658669871,0.18
571,,,0.9341444233622687,0.18
572,,,0.9351903247951237,0.0
573,,,0.9365357038767224,0.0
574,,,0.9374265318603827,0.0
575,,,0.9382956950414423,0.0
576,,,0.9382956950414423,0.036
577,,,0.9386057469513114,0.036
578,,,0.9386263526275203,0.0
579,,,0.9388811157266295,0.0
580,,,0.9392900953801115,0.0
581,,,0.941074513162806,0.0
582,,,0.9413438147411393,0.0
583,,,0.942129624051339,0.0
584,,,0.9428473314814427,0.0
585,,,0.9428473314814427,0.036
586,,,0.9498157782337584,0.036
587,,,0.9518543422736352,0.036
588,,,0.9520253171114552,0.036
589,,,0.9520253171114552,0.072
590,,,0.9556563528751107,0.072
591,,,0.9556664500729459,0.072
592,,,0.9562183815914898,0.0
593,,,0.9564636508816582,0.0
594,,,0.9577307162695261,0.0
595,,,0.9577612172898222,0.0
596,,,0.9577612172898222,0.036
597,,,0.9628337509812779,0.036
598,,,0.9637787730635035,0.036
599,,,0.9638730250289251,0.0
600,,,0.9689873171847347,0.0
601,,,0.9693424285174013,0.0
602,,,0.9694102750294897,0.0
603,,,0.9694102750294897,0.036
604,,,0.9700436613416885,0.036
605,,,0.9752139356782417,0.036
606,,,0.9780247366301245,0.036
607,,,0.9786243883774786,0.036
608,,,0.9790249456237268,0.036
609,,,0.9790249456237268,0.072
610,,,0.9869402342224207,0.072
611,,,0.9878293124864639,0.072
612,,,0.9881240465810608,0.072
613,,,0.9881240465810608,0.108
614,,,0.988990084482567,0.108
615,,,0.9890967164824547,0.0
616,,,0.9895558096771557,0.0
617,,,0.9925943477986978,0.0
618,,,0.9980793472371152,0.0
619,,,0.9991450841127376,0.0
620,,,0.9994820045935517,0.0
621,,,0.9994820045935517,0.036
622,,,1.0003966316412116,0.036
623,,,1.0005599948289499,0.036
624,,,1.002966738943976,0.036
625,,,1.0040615617953632,0.036
626,,,1.0049382813658516,0.036
627,,,1.0049382813658516,0.072
628,,,1.0128667931046236,0.072
629,,,1.0180384686403334,0.0
630,,,1.0233256022952206,0.0
631,,,1.0250182949941626,0.0
632,,,1.0252820507827147,0.0
633,,,1.0252820507827147,0.036
634,,,1.0294709711071333,0.036
635,,,1.029697669544789,0.036
636,,,1.0299889212186608,0.036
637,,,1.0299889212186608,0.072
638,,,1.0303987128337821,0.072
639,,,1.0307495429764932,0.072
640,,,1.0310173173167767,0.072
641,,,1.0310173173167767,0.108
642,,,1.0348984908833936,0.108
643,,,1.036095646523619,0.0
644,,,1.039460770302477,0.0
645,,,1.0399746584824863,0.0
646,,,1.0410036778793605,0.0
647,,,1.0410036778793605,0.036
648,,,1.0421744699415845,0.036
649,,,1.0422034903521675,0.036
650,,,1.0435206938816135,0.036
651,,,1.0435206938816135,0.072
652,,,1.0447772631949706,0.072
653,,,1.045975934663617,0.072
654,,,1.04635704631841,0.072
655,,,1.04635704631841,0.108
656,,,1.0563322646651043,0.108
657,,,1.056643667332943,0.108
658,,,1.0571219506287575,0.0
659,,,1.0572163820897513,0.0
660,,,1.063524270476914,0.0
661,,,1.0665711349926523,0.0
662,,,1.0669782832331558,0.0
663,,,1.067109306645123,0.0
664,,,1.067109306645123,0.036
665,,,1.0819531900305384,0.036
666,,,1.082887945563102,0.036
667,,,1.0832836510447494,0.036
668,,,1.0832836510447494,0.072
669,,,1.0989002756592496,0.072
670,,,1.0991812405160841,0.0
671,,,1.1001578889859358,0.0
672,,,1.100184142266646,0.0
673,,,1.1022002612572512,0.0
674,,,1.1026101806001352,0.0
675,,,1.1026943369716866,0.0
676,,,1.1026943369716866,0.036
677,,,1.105381648358926,0.036
678,,,1.1067228421921262,0.036
679,,,1.107005506281662,0.036
680,,,1.107005506281662,0.072
681,,,1.1115987352193129,0.072
682,,,1.115075342398609,0.0
683,,,1.116178710497512,0.0
684,,,1.1175863588633854,0.0
685,,,1.1177229134099944,0.0
686,,,1.1177897029784818,0.0
687,,,1.1181789044298283,0.0
688,,,1.1181789044298283,0.036
689,,,1.1198207303344825,0.036
690,,,1.1233309599766885,0.036
691,,,1.1245542575864418,0.036
692,,,1.1245542575864418,0.072
693,,,1.1313407292232798,0.072
694,,,1.133029770054109,0.072
695,,,1.1356746418126926,0.072
696,,,1.1359500658449226,0.072
697,,,1.1360202874079386,0.0
698,,,1.1391070773231506,0.0
699,,,1.1391168095319175,0.0
700,,,1.1475375718473861,0.0
701,,,1.1491287982105929,0.0
702,,,1.1499483467308655,0.0
703,,,1.150093563668304,0.0
704,,,1.1501002006232381,0.0
705,,,1.1517787930034773,0.0
706,,,1.1523792292091324,0.0
707,,,1.1534678293791165,0.0
708,,,1.1534678293791165,0.036
709,,,1.1543063719329938,0.036
710,,,1.1548774083243059,0.036
711,,,1.1558953265870615,0.036
712,,,1.1558953265870615,0.072
713,,,1.1587084876231666,0.072
714,,,1.1587773390011025,0.072
715,,,1.1593790945596423,0.072
716,,,1.1593790945596423,0.108
717,,,1.1690118411105699,0.108
718,,,1.1694841808345275,0.108
719,,,1.1695363065303193,0.0
720,,,1.169803077590232,0.0
721,,,1.171025074452884,0.0
722,,,1.1851666142536788,0.0
723,,,1.186394217868819,0.0
724,,,1.187881307287582,0.0
725,,,1.1884993480043624,0.0
726,,,1.1886695064739774,0.0
727,,,1.1886695064739774,0.036
728,,,1.1914522079924863,0.036
729,,,1.1915485403177355,0.036
730,,,1.1915656620361696,0.036
731,,,1.1915656620361696,0.072
732,,,1.1936798040490002,0.072
733,,,1.1943184119014747,0.072
734,,,1.1944864547711456,0.0
735,,,1.2097377339491002,0.0
736,,,1.2098633881855099,0.0
737,,,1.2111972477000963,0.0
738,,,1.2111972477000963,0.036
739,,,1.2112689668497127,0.036
740,,,1.211482940734503,0.036
741,,,1.2122363184609783,0.036
742,,,1.2122363184609783,0.072
743,,,1.2163956710555786,0.072
744,,,1.2189074148356474,0.0
745,,,1.2202324188798999,0.0
746,,,1.221577362041864,0.0
747,,,1.2215858717236001,0.0
748,,,1.2215858717236001,0.036
749,,,1.2247497308170905,0.036
750,,,1.225641844574299,0.036
751,,,1.225817635942998,0.036
752,,,1.225817635942998,0.072
753,,,1.226600254642947,0.072
754,,,1.2272788039026077,0.0
755,,,1.2385605293897823,0.0
756,,,1.2396806529805309,0.0
757,,,1.2408380625543254,0.0
758,,,1.2408380625543254,0.036
759,,,1.2445974157905395,0.036
760,,,1.2475571841759256,0.0
761,,,1.249072770243603,0.0
762,,,1.2490959930881713,0.0
763,,,1.2492510538895507,0.0
764,,,1.2492510538895507,0.036
765,,,1.24956990597859,0.036
766,,,1.2553900940595062,0.0
767,,,1.2581470818942693,0.0
768,,,1.2584630413044389,0.0
769,,,1.2649455775949354,0.0
770,,,1.26650814818439,0.0
771,,,1.266564049405262,0.0
772,,,1.266564049405262,0.036
773,,,1.2668842742426714,0.036
774,,,1.2670749506014891,0.0
775,,,1.2674802249965529,0.0
776,,,1.2677771495090235,0.0
777,,,1.2690100519439875,0.0
778,,,1.2690100519439875,0.036
779,,,1.2697419006273032,0.036
780,,,1.2705732097745583,0.036
781,,,1.2707330236605374,0.036
782,,,1.2707330236605374,0.072
783,,,1.2718318411459615,0.072
784,,,1.2728377731669758,0.0
785,,,1.2781908799552069,0.0
786,,,1.2785640407644374,0.0
787,,,1.2803027427413936,0.0
788,,,1.2827258693061259,0.0
789,,,1.2827613372359403,0.0
790,,,1.2827613372359403,0.036
791,,,1.287119883198847,0.036
792,,,1.2896892717961288,0.0
793,,,1.2932061060973465,0.0
794,,,1.2937009227840361,0.0
795,,,1.2946904608072094,0.0
796,,,1.2946904608072094,0.036
797,,,1.2952092507739588,0.036
798,,,1.2984135596399993,0.036
799,,,1.2984906489034111,0.036
800,,,1.2984906489034111,0.072
801,,,1.3000362482039813,0.072
802,,,1.3000586079494783,0.072
803,,,1.300465562436103,0.072
804,,,1.300465562436103,0.108
805,,,1.301505520477769,0.108
806,,,1.3021901331904564,0.108
807,,,1.302341691591832,0.108
808,,,1.302341691591832,0.144
809,,,1.3095181273150702,0.144
810,,,1.3105425529301522,0.144
811,,,1.3107775010788254,0.144
812,,,1.3107775010788254,0.18
813,,,1.3113647401599957,0.18
814,,,1.312033417007659,0.18
815,,,1.3121143052307955,0.18
816,,,1.3121143052307955,0.216
817,,,1.313973758662585,0.216
818,,,1.31399002367976,0.216
819,,,1.3142442681736766,0.216
820,,,1.3142442681736766,0.252
821,,,1.316014942816211,0.252
822,,,1.3167497895958542,0.252
823,,,1.32548929523968,0.252
824,,,1.325640768653412,0.252
825,,,1.3258600791752881,0.252
826,,,1.3258600791752881,0.288
827,,,1.3298752545827943,0.288
828,,,1.3337387173121646,0.288
829,,,1.3340870547951083,0.288
830,,,1.3340870547951083,0.324
831,,,1.3415416142637087,0.324
832,,,1.3426875114014232,0.324
833,,,1.3437579509046573,0.324
834,,,1.3437579509046573,0.36
835,,,1.3444034860074163,0.36
836,,,1.3445028813131303,0.36
837,,,1.3446394233067709,0.36
838,,,1.3446394233067709,0.396
839,,,1.3469754459475594,0.396
840,,,1.347608658024206,0.396
841,,,1.3476157146897831,0.396
842,,,1.3476157146897831,0.432
843,,,1.350886801250554,0.432
844,,,1.3512122672058746,0.432
845,,,1.3516783740556226,0.432
846,,,1.3516783740556226,0.468
847,,,1.3528969667533621,0.468
848,,,1.3530739471865632,0.468
849,,,1.3535896157629699,0.468
850,,,1.3535896157629699,0.504
851,,,1.3624929495045413,0.504
852,,,1.3650200013733373,0.504
853,,,1.3651798797510635,0.0
854,,,1.3661729882421794,0.0
855,,,1.3667927800377795,0.0
856,,,1.3684681540134376,0.0
857,,,1.3691426801737814,0.0
858,,,1.3792222415768434,0.0
859,,,1.3812860851671198,0.0
860,,,1.381905583483067,0.0
861,,,1.381905583483067,0.036
862,,,1.392422352752967,0.036
863,,,1.3934928558164943,0.036
864,,,1.3940791268982649,0.036
865,,,1.3940791268982649,0.072
866,,,1.3982718328417674,0.072
867,,,1.400804255377083,0.0
868,,,1.4051699382251188,0.0
869,,,1.40519429326742,0.0
870,,,1.4054093662843856,0.0
871,,,1.4054093662843856,0.036
872,,,1.4072859238044595,0.036
873,,,1.4077292410612907,0.036
874,,,1.4084711748405931,0.036
875,,,1.4084711748405931,0.072
876,,,1.4098603811410753,0.072
877,,,1.4111294798596132,0.072
878,,,1.411682000329809,0.0
879,,,1.4155970296504643,0.0
880,,,1.425552502036294,0.0
881,,,1.4261080068093088,0.0
882,,,1.4266628196917557,0.0
883,,,1.4269650919911134,0.0
884,,,1.4269650919911134,0.036
885,,,1.4289134793369884,0.036
886,,,1.4293371690570273,0.036
887,,,1.4293924847313724,0.036
888,,,1.4293924847313724,0.072
889,,,1.429587286713745,0.072
890,,,1.4301185367446427,0.072
891,,,1.4301735470374934,0.072
892,,,1.4301735470374934,0.108
893,,,1.4304876854820394,0.108
894,,,1.430503729558919,0.108
895,,,1.430566730246242,0.108
896,,,1.430566730246242,0.144
897,,,1.4317071182427652,0.144
898,,,1.4320393550043606,0.0
899,,,1.432189124079902,0.0
900,,,1.4334140853876471,0.0
901,,,1.4386666522134481,0.0
902,,,1.4400732397282683,0.0
903,,,1.4401368751682115,0.0
904,,,1.4401368751682115,0.036
905,,,1.4402723709778202,0.036
906,,,1.4412456073299156,0.036
907,,,1.4412680277876673,0.036
908,,,1.4412680277876673,0.072
909,,,1.4436677009786925,0.072
910,,,1.4437108406699393,0.072
911,,,1.4437199751200227,0.072
912,,,1.4437199751200227,0.108
913,,,1.443737398213,0.108
914,,,1.4441940533697784,0.108
915,,,1.4442057678783096,0.108
916,,,1.4442057678783096,0.144
917,,,1.44785019101466,0.144
918,,,1.456448528804514,0.144
919,,,1.4612817586112756,0.144
920,,,1.4617123252417583,0.144
921,,,1.4617932500942166,0.144
922,,,1.4617932500942166,0.18
923,,,1.4673848514707215,0.18
924,,,1.4681930870355133,0.0
925,,,1.4728611730788126,0.0
926,,,1.473085575857156,0.0
927,,,1.473135746909036,0.0
928,,,1.473135746909036,0.036
929,,,1.4761749067101446,0.036
930,,,1.4761912157820705,0.0
931,,,1.4782399080236415,0.0
932,,,1.4790822663921093,0.0
933,,,1.4791119534405004,0.0
934,,,1.4823526982044273,0.0
935,,,1.4860674956846518,0.0
936,,,1.4922506019555604,0.0
937,,,1.4938547647377733,0.0
938,,,1.4967056244746315,0.0
939,,,1.499935557549322,0.0
940,,,1.5001876815830792,0.0
941,,,1.5001876815830792,0.036
942,,,1.500471858633266,0.036
943,,,1.5007618627705996,0.036
944,,,1.5008800213380118,0.036
945,,,1.5008800213380118,0.072
946,,,1.5016492896287188,0.072
947,,,1.502095556385684,0.0
948,,,1.5132710532835434,0.0
949,,,1.5165694466787647,0.0
950,,,1.5167038447485366,0.0
951,,,1.517787530108456,0.0
952,,,1.5190457534884212,0.0
953,,,1.51992738440802,0.0
954,,,1.51992738440802,0.036
955,,,1.5208323260117078,0.036
956,,,1.5215803546388225,0.0
957,,,1.5294131169230925,0.0
958,,,1.5304386285185911,0.0
959,,,1.5350446700095697,0.0
960,,,1.5356716205273537,0.0
961,,,1.5360127739986327,0.0
962,,,1.5360127739986327,0.036
963,,,1.5366730138676532,0.036
964,,,1.5386247335810586,0.036
965,,,1.5392303669429017,0.036
966,,,1.5392303669429017,0.072
967,,,1.5467756172109715,0.072
968,,,1.5505476017857918,0.0
969,,,1.5540109280251526,0.0
970,,,1.5549494328510933,0.0
971,,,1.5550199905617346,0.0
972,,,1.5550199905617346,0.036
973,,,1.566331605902323,0.036
974,,,1.5665374437611943,0.036
975,,,1.5668096205774527,0.0
976,,,1.5705828066133032,0.0
977,,,1.5711730828240915,0.0
978,,,1.5713546376680343,0.0
979,,,1.5713546376680343,0.036
980,,,1.579605492499236,0.036
981,,,1.5825932064383155,0.0
982,,,1.5883530708073073,0.0
983,,,1.5892553226933073,0.0
984,,,1.5896037729833727,0.0
985,,,1.5896037729833727,0.036
986,,,1.5908615586541588,0.036
987,,,1.5909447724140398,0.036
988,,,1.5911609825688329,0.036
989,,,1.5911609825688329,0.072
990,,,1.5927380227685903,0.072
991,,,1.5935641171947923,0.072
992,,,1.5938727663621064,0.072
993,,,1.5943481360033767,0.072
994,,,1.5944477305916722,0.0
995,,,1.5967927549917365,0.0
996,,,1.598213800289387,0.0
997,,,1.5985339754885706,0.0
998,,,1.5985339754885706,0.036
999,,,1.6046149070383384,0.036
1000,,,1.6051005759832568,0.0
1001,,,1.6228715924486545,0.0
1002,,,1.6235488854140057,0.0
1003,,,1.6236867388837775,0.0
1004,,,1.6236867388837775,0.036
1005,,,1.6279552657017478,0.036
1006,,,1.6292114241867663,0.0
1007,,,1.641149888067333,0.0
1008,,,1.6426863958087479,0.0
1009,,,1.6434561804836134,0.0
1010,,,1.6449778783543385,0.0
1011,,,1.6457777537812293,0.0
1012,,,1.6459722757377113,0.0
1013,,,1.6459722757377113,0.036
1014,,,1.6510051852330543,0.036
1015,,,1.6510626879053918,0.036
1016,,,1.6511890052461213,0.036
1017,,,1.6511890052461213,0.072
1018,,,1.6521878260111782,0.072
1019,,,1.6532930494294247,0.072
1020,,,1.6538656038804165,0.072
1021,,,1.6538656038804165,0.108
1022,,,1.657371722947926,0.108
1023,,,1.65739382527918,0.0
1024,,,1.6574548370343019,0.0
1025,,,1.6607608006128531,0.0
1026,,,1.6698237517478924,0.0
1027,,,1.6701326228623836,0.0
1028,,,1.6712752545211513,0.0
1029,,,1.6712752545211513,0.036
1030,,,1.6773966510745195,0.036
1031,,,1.6807755619433253,0.0
1032,,,1.6832641237141095,0.0
1033,,,1.6837456636012478,0.0
1034,,,1.6837605649745315,0.0
1035,,,1.6837605649745315,0.036
1036,,,1.6865515615027986,0.036
1037,,,1.6870860662468266,0.036
1038,,,1.6871463588765439,0.036
1039,,,1.6871463588765439,0.072
1040,,,1.6897019269693105,0.072
1041,,,1.6899404956181767,0.0
1042,,,1.6961280381920334,0.0
1043,,,1.6965284589623808,0.0
1044,,,1.6971902947250355,0.0
1045,,,1.6971902947250355,0.036
1046,,,1.6996603106642914,0.036
1047,,,1.7009517985706024,0.036
1048,,,1.7013240213994143,0.036
1049,,,1.7013240213994143,0.072
1050,,,1.7119300598436906,0.072
1051,,,1.7122373886116966,0.072
1052,,,1.7125083229772189,0.072
1053,,,1.7125083229772189,0.108
1054,,,1.714165537346262,0.108
1055,,,1.714990615639711,0.0
1056,,,1.7154445947373054,0.0
1057,,,1.7156537512900831,0.0
1058,,,1.7156813543464233,0.0
1059,,,1.7156813543464233,0.036
1060,,,1.720769949473035,0.036
1061,,,1.722498266359561,0.036
1062,,,1.7226453662318617,0.036
1063,,,1.7226453662318617,0.072
1064,,,1.725715992780155,0.072
1065,,,1.7267758648626677,0.072
1066,,,1.727119787712179,0.072
1067,,,1.727119787712179,0.108
1068,,,1.727444040375432,0.108
1069,,,1.7280764194361504,0.0
1070,,,1.7285558633294231,0.0
1071,,,1.7294036510217259,0.0
1072,,,1.7296178792350174,0.0
1073,,,1.7296178792350174,0.036
1074,,,1.7305235535689887,0.036
1075,,,1.7312598302379465,0.0
1076,,,1.7313273066709511,0.0
1077,,,1.734993972939793,0.0
1078,,,1.73539504116125,0.0
1079,,,1.7418672232688825,0.0
1080,,,1.7419008358000854,0.0
1081,,,1.7422405606311129,0.0
1082,,,1.7422405606311129,0.036
1083,,,1.7520655819692292,0.036
1084,,,1.7530479015773759,0.036
1085,,,1.7531373302943818,0.036
1086,,,1.7531373302943818,0.072
1087,,,1.7551604785390973,0.072
1088,,,1.7555324819835318,0.072
1089,,,1.7556067978809038,0.072
1090,,,1.7556067978809038,0.108
1091,,,1.757934986924119,0.108
1092,,,1.7594844628100477,0.0
1093,,,1.759619716213229,0.0
1094,,,1.7608766837539944,0.0
1095,,,1.764337212319492,0.0
1096,,,1.7672826385790001,0.0
1097,,,1.7673057583086296,0.0
1098,,,1.7679936959481006,0.0
1099,,,1.7680935078681612,0.0
1100,,,1.769582968176997,0.0
1101,,,1.7701659386613047,0.0
1102,,,1.7716919507624462,0.0
1103,,,1.7866326059368225,0.0
1104,,,1.7877728860699724,0.0
1105,,,1.7879522168145057,0.0
1106,,,1.7879522168145057,0.036
1107,,,1.790814144245446,0.036
1108,,,1.7935764990868739,0.036
1109,,,1.7950011055033288,0.036
1110,,,1.7951440387903466,0.0
1111,,,1.798894966459474,0.0
1112,,,1.8030243985766186,0.0
1113,,,1.807285053937922,0.0
1114,,,1.8093761261001378,0.0
1115,,,1.8235400003372488,0.0
1116,,,1.8235993314875723,0.0
1117,,,1.8236938460577674,0.0
1118,,,1.8236938460577674,0.036
1119,,,1.8297365147038933,0.036
1120,,,1.8300203368440284,0.036
1121,,,1.8308236836692098,0.036
1122,,,1.8308236836692098,0.072
1123,,,1.8386415934303342,0.072
1124,,,1.8394491968813727,0.0
1125,,,1.8431561208842018,0.0
1126,,,1.844309069098938,0.0
1127,,,1.8446706704240645,0.0
1128,,,1.8446706704240645,0.036
1129,,,1.8527339383285275,0.036
1130,,,1.8528340678441788,0.0
1131,,,1.8589853863875652,0.0
1132,,,1.8592436507311385,0.0
1133,,,1.8626410978108519,0.0
1134,,,1.8629470806552968,0.0
1135,,,1.8633053252795824,0.0
1136,,,1.8633053252795824,0.036
1137,,,1.8762562334624535,0.036
1138,,,1.8780055524446562,0.036
1139,,,1.878074192249474,0.036
1140,,,1.8782508470705617,0.0
1141,,,1.8825724244549127,0.0
1142,,,1.8839814320901835,0.0
1143,,,1.8840572294261042,0.0
1144,,,1.8840572294261042,0.036
1145,,,1.8932502750418445,0.036
1146,,,1.8953306289238983,0.036
1147,,,1.8972260299479666,0.036
1148,,,1.8972260299479666,0.072
1149,,,1.8979330426206582,0.072
1150,,,1.8983210037599614,0.072
1151,,,1.898405827966747,0.072
1152,,,1.898405827966747,0.108
1153,,,1.9029703137483382,0.108
1154,,,1.9043261947386627,0.108
1155,,,1.9044016745054853,0.108
1156,,,1.9044016745054853,0.144
1157,,,1.9133623803071673,0.144
1158,,,1.9135984526459007,0.0
1159,,,1.916863135826639,0.0
1160,,,1.9169389514311552,0.0
1161,,,1.9171875259293918,0.0
1162,,,1.9171875259293918,0.036
1163,,,1.918106492240221,0.036
1164,,,1.9219417569782395,0.036
1165,,,1.9220921066528982,0.036
1166,,,1.922341373204424,0.036
1167,,,1.9231709510129606,0.036
1168,,,1.9231709510129606,0.072
1169,,,1.9253638450558315,0.072
1170,,,1.9282212814878354,0.072
1171,,,1.9284932606668042,0.072
1172,,,1.9284932606668042,0.108
1173,,,1.9301880337625645,0.108
1174,,,1.9360368047962035,0.108
1175,,,1.936691056744002,0.108
1176,,,1.936691056744002,0.144
1177,,,1.9429689412903963,0.144
1178,,,1.9437334367567738,0.144
1179,,,1.9445052095215205,0.144
1180,,,1.9445052095215205,0.18
1181,,,1.9509636878270866,0.18
1182,,,1.9566658388047697,0.18
1183,,,1.9613271171600521,0.18
1184,,,1.9631059200582817,0.18
1185,,,1.963219716737039,0.18
1186,,,1.963219716737039,0.216
1187,,,1.9638170761527904,0.216
1188,,,1.9639253472743041,0.0
1189,,,1.9701941455621172,0.0
1190,,,1.9707755409372938,0.0
1191,,,1.9708304725310102,0.0
1192,,,1.9708304725310102,0.036
1193,,,1.9735352176104461,0.036
1194,,,1.9744036729126657,0.036
1195,,,1.9747973372581038,0.036
1196,,,1.9747973372581038,0.072
1197,,,1.9774051884483663,0.072
1198,,,1.9783012963944513,0.072
1199,,,1.9786710224594684,0.072
1200,,,1.9786710224594684,0.108
1201,,,1.9810699686076587,0.108
1202,,,1.9810837073882857,0.0
1203,,,1.9826648622373915,0.0
1204,,,1.9832129922673358,0.0
1205,,,1.983348740200129,0.0
1206,,,1.983348740200129,0.036
1207,,,1.9883549296873104,0.036
1208,,,1.9890679516020606,0.036
1209,,,1.9892047709276666,0.036
1210,,,1.9892047709276666,0.072
1211,,,1.9905482540460566,0.072
1212,,,1.990551775763616,0.072
1213,,,1.9923331054747697,0.072
1214,,,1.993548976691268,0.072
1215,,,1.9943366982219848,0.072
1216,,,1.9943366982219848,0.108
1217,,,1.9977172479948022,0.108
1218,,,1.9986445846261267,0.108
1219,,,1.9990973492299178,0.108
1220,,,1.9990973492299178,0.144
1221,,,2.0005000187736437,0.144
1222,,,2.00381678086777,0.0
1223,,,2.0085256536254628,0.0
1224,,,2.009570851932719,0.0
1225,,,2.01134153967151,0.0
1226,,,2.0130539746811733,0.0
1227,,,2.0151728831358993,0.0
1228,,,2.0167889251915083,0.0
1229,,,2.0248134940205498,0.0
1230,,,2.0252846560338638,0.0
1231,,,2.02529914028555,0.0
1232,,,2.02529914028555,0.036
1233,,,2.0308673400708566,0.036
1234,,,2.0338363061952434,0.0
1235,,,2.0357218207659153,0.0
1236,,,2.0400635000795324,0.0
1237,,,2.045505879653878,0.0
1238,,,2.047071334544971,0.0
1239,,,2.0472693055045843,0.0
1240,,,2.0472693055045843,0.036
1241,,,2.0529299726922074,0.036
1242,,,2.0543784472405155,0.036
1243,,,2.0544292145542533,0.036
1244,,,2.0544292145542533,0.072
1245,,,2.057490093558866,0.072
1246,,,2.0582704294636445,0.0
1247,,,2.06432961766122,0.0
1248,,,2.064879458536285,0.0
1249,,,2.06558174567905,0.0
1250,,,2.06558174567905,0.036
1251,,,2.0746250602649026,0.036
1252,,,2.075038028544765,0.036
1253,,,2.0751897059318276,0.036
1254,,,2.0751897059318276,0.072
1255,,,2.0802094121274566,0.072
1256,,,2.0804638384724248,0.072
1257,,,2.081155957795425,0.072
1258,,,2.081155957795425,0.108
1259,,,2.0838374536755913,0.108
1260,,,2.084386649276131,0.108
1261,,,2.0855055727100877,0.108
1262,,,2.0855055727100877,0.144
1263,,,2.0863948043276137,0.144
1264,,,2.087125006865354,0.144
1265,,,2.0875855483886623,0.144
1266,,,2.0875855483886623,0.18
1267,,,2.08762034016877,0.18
1268,,,2.0893064326060626,0.18
1269,,,2.0896112972752503,0.18
1270,,,2.0896112972752503,0.216
1271,,,2.0916807965045843,0.216
1272,,,2.1012159863590485,0.0
1273,,,2.101952532623284,0.0
1274,,,2.102009338131821,0.0
1275,,,2.115290244178458,0.0
1276,,,2.1209879161584633,0.0
1277,,,2.129634222387902,0.0
1278,,,2.131366914428793,0.0
1279,,,2.131757484098446,0.0
1280,,,2.131757484098446,0.036
1281,,,2.131836055850351,0.036
1282,,,2.1324824590207188,0.036
1283,,,2.132604237091633,0.036
1284,,,2.132604237091633,0.072
1285,,,2.1331086008530677,0.072
1286,,,2.1338690119635553,0.072
1287,,,2.136375317181222,0.072
1288,,,2.1366175032477868,0.072
1289,,,2.1366701752520667,0.072
1290,,,2.1366701752520667,0.108
1291,,,2.1494947608569133,0.108
1292,,,2.151864172323571,0.0
1293,,,2.1530578361775925,0.0
1294,,,2.154574574509785,0.0
1295,,,2.1545968303994156,0.0
1296,,,2.1545968303994156,0.036
1297,,,2.1571917362144424,0.036
1298,,,2.1574633899258275,0.036
1299,,,2.1579629362349158,0.036
1300,,,2.1579629362349158,0.072
1301,,,2.160791373313244,0.072
1302,,,2.1610141633550066,0.072
1303,,,2.1622011913483705,0.072
1304,,,2.1622011913483705,0.108
1305,,,2.165127348493855,0.108
1306,,,2.1654209658151755,0.108
1307,,,2.1660624402728628,0.108
1308,,,2.1660624402728628,0.144
1309,,,2.1662766707042804,0.144
1310,,,2.167712271301629,0.144
1311,,,2.1681810372943344,0.144
1312,,,2.1681810372943344,0.18
1313,,,2.1689484922038433,0.18
1314,,,2.1698641019388676,0.18
1315,,,2.1699663504524116,0.18
1316,,,2.1699663504524116,0.216
1317,,,2.1723594907871506,0.216
1318,,,2.1754563260558486,0.216
1319,,,2.1790005982954552,0.216
1320,,,2.182974279901832,0.216
1321,,,2.186228761567752,0.216
1322,,,2.1872259787768025,0.0
1323,,,2.193416409074346,0.0
1324,,,2.193616050735799,0.0
1325,,,2.193973295506619,0.0
1326,,,2.2017009611302703,0.0
1327,,,2.201719048823569,0.0
1328,,,2.2017985299616436,0.0
1329,,,2.2017985299616436,0.036
1330,,,2.202809276063852,0.036
1331,,,2.203393149176585,0.036
1332,,,2.2036892340460517,0.0
1333,,,2.2043072286753853,0.0
1334,,,2.2054611514370857,0.0
1335,,,2.2056272005513184,0.0
1336,,,2.2056272005513184,0.036
1337,,,2.2065960624955787,0.036
1338,,,2.209523503527966,0.036
1339,,,2.2104562585976426,0.036
1340,,,2.211292676415872,0.036
1341,,,2.2116804656474747,0.036
1342,,,2.2116804656474747,0.072
1343,,,2.214299122469318,0.072
1344,,,2.2144858582023614,0.072
1345,,,2.2145649986641063,0.072
1346,,,2.2145649986641063,0.108
1347,,,2.21741850410731,0.108
1348,,,2.217494554638882,0.0
1349,,,2.221137180560828,0.0
1350,,,2.221749597512212,0.0
1351,,,2.222713294468112,0.0
1352,,,2.222713294468112,0.036
1353,,,2.2232528748759153,0.036
1354,,,2.223439912083415,0.036
1355,,,2.2264258251882234,0.036
1356,,,2.2264258251882234,0.072
1357,,,2.232537673385365,0.072
1358,,,2.2327284715296516,0.072
1359,,,2.232775326077433,0.072
1360,,,2.232775326077433,0.108
1361,,,2.2403430865919107,0.108
1362,,,2.241290908161406,0.108
1363,,,2.2416635791432276,0.108
1364,,,2.2416635791432276,0.144
1365,,,2.2457377812895443,0.144
1366,,,2.2479195979788704,0.144
1367,,,2.2487638837119492,0.144
1368,,,2.2489872264453004,0.144
1369,,,2.2490398414094566,0.144
1370,,,2.2490398414094566,0.18
1371,,,2.25297029736399,0.18
1372,,,2.253772252595513,0.18
1373,,,2.253960190928896,0.18
1374,,,2.253960190928896,0.216
1375,,,2.254436087581275,0.216
1376,,,2.2551408650099836,0.216
1377,,,2.2747727115213037,0.216
1378,,,2.2804241361371504,0.216
1379,,,2.2810353741725313,0.216
1380,,,2.281286663522555,0.216
1381,,,2.282221322889858,0.216
1382,,,2.282221322889858,0.252
1383,,,2.284529359504824,0.252
1384,,,2.2850156971344626,0.252
1385,,,2.2855510265709595,0.252
1386,,,2.2855510265709595,0.288
1387,,,2.2865099472000834,0.288
1388,,,2.2883413461184405,0.288
1389,,,2.2889975262189433,0.288
1390,,,2.2889975262189433,0.324
1391,,,2.2903973927023875,0.324
1392,,,2.292694628906376,0.324
1393,,,2.2931474412918904,0.324
1394,,,2.2931474412918904,0.36
1395,,,2.293501876742,0.36
1396,,,2.2935687772710365,0.36
1397,,,2.300924621514217,0.36
1398,,,2.300938540090409,0.36
1399,,,2.300976185078631,0.36
1400,,,2.300976185078631,0.396
1401,,,2.306894374671871,0.396
1402,,,2.3080588511825733,0.396
1403,,,2.3084515729629667,0.396
1404,,,2.3084515729629667,0.432
1405,,,2.308677394663298,0.432
1406,,,2.310353461363973,0.432
1407,,,2.310599289837108,0.432
1408,,,2.310599289837108,0.468
1409,,,2.3125565892524955,0.468
1410,,,2.3125639292689355,0.468
1411,,,2.312567247660364,0.468
1412,,,2.312567247660364,0.504
1413,,,2.31728254207711,0.504
1414,,,2.318786239770783,0.504
1415,,,2.3189512106471133,0.504
1416,,,2.3189512106471133,0.54
1417,,,2.32888501869233,0.54
1418,,,2.3290555600456804,0.54
1419,,,2.3291398607278575,0.54
1420,,,2.3291398607278575,0.576
1421,,,2.3333795610491608,0.576
1422,,,2.336286452782491,0.576
1423,,,2.3376588921417136,0.576
1424,,,2.3376588921417136,0.612
1425,,,2.3383450874640017,0.612
1426,,,2.340591469238144,0.612
1427,,,2.341043913756434,0.612
1428,,,2.341043913756434,0.648
1429,,,2.3506525927911808,0.648
1430,,,2.350688817885497,0.648
1431,,,2.3518814558242385,0.648
1432,,,2.3519398171642356,0.0
1433,,,2.3537543770974922,0.0
1434,,,2.354520960268741,0.0
1435,,,2.35489458042887,0.0
1436,,,2.35489458042887,0.036
1437,,,2.3564105631697894,0.036
1438,,,2.357344014830338,0.0
1439,,,2.3581834273150895,0.0
1440,,,2.3584480686929465,0.0
1441,,,2.3587121716566104,0.0
1442,,,2.3587121716566104,0.036
1443,,,2.37858690706861,0.036
1444,,,2.378864029005473,0.0
1445,,,2.3817110549811416,0.0
1446,,,2.3819871375091006,0.0
1447,,,2.3862892005160505,0.0
1448,,,2.3863533013246245,0.0
1449,,,2.386421792683211,0.0
1450,,,2.386421792683211,0.036
1451,,,2.3872341943414783,0.036
1452,,,2.3905659151686356,0.0
1453,,,2.3980873224780668,0.0
1454,,,2.398431794898756,0.0
1455,,,2.398553170062365,0.0
1456,,,2.4009844214340186,0.0
1457,,,2.4011947040266852,0.0
1458,,,2.4011947040266852,0.036
1459,,,2.4061285473909964,0.036
1460,,,2.4068002527052466,0.0
1461,,,2.4076641109426147,0.0
1462,,,2.407756389747763,0.0
1463,,,2.40863409772074,0.0
1464,,,2.40863409772074,0.036
1465,,,2.4086881115994876,0.036
1466,,,2.4090331604596864,0.036
1467,,,2.4091626247537556,0.036
1468,,,2.4091626247537556,0.072
1469,,,2.4116500392316693,0.072
1470,,,2.4126073152300824,0.072
1471,,,2.413135875575297,0.072
1472,,,2.413135875575297,0.108
1473,,,2.4190182503204687,0.108
1474,,,2.4202190860049404,0.108
1475,,,2.4203933427020354,0.108
1476,,,2.4203933427020354,0.144
1477,,,2.420469887344434,0.144
1478,,,2.4221722535991157,0.144
1479,,,2.423486506823216,0.144
1480,,,2.423486506823216,0.18
1481,,,2.424564342657921,0.18
1482,,,2.426202611127356,0.0
1483,,,2.426971289026018,0.0
1484,,,2.429564062569363,0.0
1485,,,2.438850634862596,0.0
1486,,,2.439200057757204,0.0
1487,,,2.440214993973991,0.0
1488,,,2.440214993973991,0.036
1489,,,2.44617192804282,0.036
1490,,,2.4488659358134752,0.036
1491,,,2.449395444136015,0.036
1492,,,2.449395444136015,0.072
1493,,,2.4525670270490076,0.072
1494,,,2.4528039708986684,0.0
1495,,,2.454460508883142,0.0
1496,,,2.454469454563468,0.0
1497,,,2.4546993765900433,0.0
1498,,,2.4546993765900433,0.036
1499,,,2.457780331674166,0.036
1500,,,2.4594266556161726,0.036
1501,,,2.459883620565935,0.036
1502,,,2.4633631295605367,0.0
1503,,,2.4663155378149098,0.0
1504,,,2.466384664619878,0.0
1505,,,2.466551022989367,0.0
1506,,,2.466551022989367,0.036
1507,,,2.4674017067686167,0.036
1508,,,2.467493194674577,0.036
1509,,,2.468527221609855,0.036
1510,,,2.468527221609855,0.072
1511,,,2.473189327873812,0.072
1512,,,2.473746713785377,0.072
1513,,,2.473848261464501,0.072
1514,,,2.473848261464501,0.108
1515,,,2.4749676408290435,0.108
1516,,,2.4788033584472613,0.108
1517,,,2.480847988257774,0.108
1518,,,2.4811894118844817,0.108
1519,,,2.481320600976562,0.108
1520,,,2.4814255701198205,0.108
1521,,,2.482264170131635,0.108
1522,,,2.482264170131635,0.144
1523,,,2.4880249954944107,0.144
1524,,,2.4883170738813982,0.144
1525,,,2.489093202662761,0.144
1526,,,2.489093202662761,0.18
1527,,,2.491342374154489,0.18
1528,,,2.495987340598453,0.18
1529,,,2.496426637580732,0.18
1530,,,2.498840161893674,0.0
1531,,,2.5011725469816293,0.0
1532,,,2.502600380478925,0.0
1533,,,2.503092592859187,0.0
1534,,,2.503092592859187,0.036
1535,,,2.503398638574576,0.036
1536,,,2.5057638998062695,0.036
1537,,,2.505766052101026,0.036
1538,,,2.505766052101026,0.072
1539,,,2.512651138393644,0.072
1540,,,2.513970232549929,0.072
1541,,,2.5140734751721885,0.072
1542,,,2.5140734751721885,0.108
1543,,,2.520005880862084,0.108
1544,,,2.5201262024341142,0.108
1545,,,2.520139002695781,0.108
1546,,,2.520139002695781,0.144
1547,,,2.521462053406357,0.144
1548,,,2.5217048935115374,0.144
1549,,,2.5220615934908173,0.144
1550,,,2.5220615934908173,0.18
1551,,,2.5221316564065495,0.18
1552,,,2.522896261831403,0.18
1553,,,2.523153480304816,0.18
1554,,,2.523153480304816,0.216
1555,,,2.5245634891536666,0.216
1556,,,2.5266794007152056,0.216
1557,,,2.5285930848918,0.216
1558,,,2.5322350252592942,0.216
1559,,,2.5335202938150507,0.216
1560,,,2.54029724526658,0.0
1561,,,2.5475287821461974,0.0
1562,,,2.547882807748297,0.0
1563,,,2.549097088844685,0.0
1564,,,2.549097088844685,0.036
1565,,,2.54984959834455,0.036
1566,,,2.550042677482174,0.036
1567,,,2.5502963298797843,0.036
1568,,,2.5502963298797843,0.072
1569,,,2.555254187358531,0.072
1570,,,2.5553058314109665,0.072
1571,,,2.5558468592611705,0.072
1572,,,2.5558468592611705,0.108
1573,,,2.5585831716441207,0.108
1574,,,2.561217799902937,0.0
1575,,,2.5636976850685373,0.0
1576,,,2.5644787510317277,0.0
1577,,,2.5646223036661224,0.0
1578,,,2.5646223036661224,0.036
1579,,,2.5722987604662135,0.036
1580,,,2.57510495475839,0.0
1581,,,2.5805959135108223,0.0
1582,,,2.5821934241193167,0.0
1583,,,2.5824940365454774,0.0
1584,,,2.5824940365454774,0.036
1585,,,2.582843335450149,0.036
1586,,,2.5833539319855463,0.036
1587,,,2.5836030515343955,0.036
1588,,,2.5836030515343955,0.072
1589,,,2.5879247540113495,0.072
1590,,,2.5886715635112454,0.072
1591,,,2.5890116465751634,0.072
1592,,,2.5890116465751634,0.108
1593,,,2.5965304873464463,0.108
1594,,,2.6082512109236307,0.0
1595,,,2.609549899165203,0.0
1596,,,2.6104185728275118,0.0
1597,,,2.6118930730460805,0.0
1598,,,2.6118930730460805,0.036
1599,,,2.613704100842157,0.036
1600,,,2.614772519314003,0.036
1601,,,2.614841611509351,0.036
1602,,,2.614841611509351,0.072
1603,,,2.6182935482858154,0.072
1604,,,2.6187323046665822,0.072
1605,,,2.619017222751329,0.072
1606,,,2.619017222751329,0.108
1607,,,2.6234652794259548,0.108
1608,,,2.6239260916791887,0.0
1609,,,2.629578904985835,0.0
1610,,,2.630217132564508,0.0
1611,,,2.63038004154222,0.0
1612,,,2.63038004154222,0.036
1613,,,2.639398824461682,0.036
1614,,,2.640104490355788,0.036
1615,,,2.64107307993343,0.036
1616,,,2.64107307993343,0.072
1617,,,2.648548066723513,0.072
1618,,,2.6544190895058337,0.072
1619,,,2.6659066335437336,0.072
1620,,,2.667278912805945,0.072
1621,,,2.667602078580747,0.072
1622,,,2.669727619637386,0.0
1623,,,2.6712868188331003,0.0
1624,,,2.6713167501973833,0.0
1625,,,2.6713543233065,0.0
1626,,,2.6713543233065,0.036
1627,,,2.6718679349101544,0.036
1628,,,2.67292153281124,0.0
1629,,,2.6735377554398427,0.0
1630,,,2.6737114285666754,0.0
1631,,,2.6741031164904205,0.0
1632,,,2.6741031164904205,0.036
1633,,,2.676931984800837,0.036
1634,,,2.677106967410789,0.036
1635,,,2.677180395556081,0.036
1636,,,2.677180395556081,0.072
1637,,,2.681539431103343,0.072
1638,,,2.683173206262338,0.072
1639,,,2.683636963449719,0.072
1640,,,2.683636963449719,0.108
1641,,,2.6868013495729057,0.108
1642,,,2.687166769662288,0.0
1643,,,2.6884809118267414,0.0
1644,,,2.688484452476408,0.0
1645,,,2.693223842093677,0.0
1646,,,2.693255538511532,0.0
1647,,,2.6934414382093648,0.0
1648,,,2.6934414382093648,0.036
1649,,,2.7017436753028017,0.036
1650,,,2.7021934184585996,0.036
1651,,,2.7024312545743276,0.036
1652,,,2.7024312545743276,0.072
1653,,,2.710447951260382,0.072
1654,,,2.7106928182299237,0.0
1655,,,2.7131324012775773,0.0
1656,,,2.714204033470341,0.0
1657,,,2.7143499076842277,0.0
1658,,,2.7143499076842277,0.036
1659,,,2.7147918756807643,0.036
1660,,,2.7151738980511686,0.036
1661,,,2.7152862368188506,0.036
1662,,,2.7152862368188506,0.072
1663,,,2.7171937921437648,0.072
1664,,,2.725825411210315,0.072
1665,,,2.7400200490595514,0.072
1666,,,2.7454020624388304,0.072
1667,,,2.7454345309984474,0.072
1668,,,2.7464336369941647,0.072
1669,,,2.747079459110883,0.072
1670,,,2.747079459110883,0.108
1671,,,2.7477686549202085,0.108
1672,,,2.7489940063291867,0.0
1673,,,2.749163258915307,0.0
1674,,,2.7506872145899104,0.0
1675,,,2.7637059678327214,0.0
1676,,,2.7647121326111597,0.0
1677,,,2.764750696697127,0.0
1678,,,2.764750696697127,0.036
1679,,,2.769883016682841,0.036
1680,,,2.769898652938033,0.036
1681,,,2.770086321469331,0.036
1682,,,2.770086321469331,0.072
1683,,,2.7709854679075763,0.072
1684,,,2.771409310568452,0.072
1685,,,2.77182945224157,0.072
1686,,,2.77182945224157,0.108
1687,,,2.7737420805888986,0.108
1688,,,2.7745343741453334,0.108
1689,,,2.775517413445397,0.108
1690,,,2.775517413445397,0.144
1691,,,2.7807115602058703,0.144
1692,,,2.7837358723598884,0.144
1693,,,2.784046580456418,0.144
1694,,,2.784046580456418,0.18
1695,,,2.789924560716945,0.18
1696,,,2.790351940194971,0.18
1697,,,2.7906488565576995,0.18
1698,,,2.7906488565576995,0.216
1699,,,2.794034046990981,0.216
1700,,,2.7945006156128196,0.216
1701,,,2.7949221013516707,0.216
1702,,,2.7949221013516707,0.252
1703,,,2.80131569240383,0.252
1704,,,2.80459922596748,0.252
1705,,,2.8048256885077167,0.252
1706,,,2.8048256885077167,0.288
1707,,,2.8074460752937,0.288
1708,,,2.807860212866818,0.288
1709,,,2.80943321670829,0.288
1710,,,2.8114833000885566,0.288
1711,,,2.811537676277575,0.288
1712,,,2.811999487818162,0.0
1713,,,2.815083880112563,0.0
1714,,,2.8158930948713126,0.0
1715,,,2.8164365731371808,0.0
1716,,,2.8164365731371808,0.036
1717,,,2.8209315516860753,0.036
1718,,,2.8235151593522607,0.036
1719,,,2.8260530628828997,0.036
1720,,,2.8260530628828997,0.072
1721,,,2.826781145388378,0.072
1722,,,2.827093637192344,0.0
1723,,,2.8317525787451823,0.0
1724,,,2.8318906472362846,0.0
1725,,,2.8320206732345037,0.0
1726,,,2.8320206732345037,0.036
1727,,,2.8363388507263254,0.036
1728,,,2.836674460130113,0.036
1729,,,2.8367867471257453,0.036
1730,,,2.8367867471257453,0.072
1731,,,2.8369542581904676,0.072
1732,,,2.8372370365543675,0.072
1733,,,2.8374927416690605,0.072
1734,,,2.8374927416690605,0.108
1735,,,2.840243061932573,0.108
1736,,,2.840281762765957,0.0
1737,,,2.8431956692728884,0.0
1738,,,2.8509052293814756,0.0
1739,,,2.852499490110797,0.0
1740,,,2.8531783841630096,0.0
1741,,,2.8535889315522107,0.0
1742,,,2.8535889315522107,0.036
1743,,,2.853625602428214,0.036
1744,,,2.859870521395984,0.0
1745,,,2.8740730165228117,0.0
1746,,,2.8742503865757323,0.0
1747,,,2.8743220675106516,0.0
1748,,,2.8743220675106516,0.036
1749,,,2.883480073940494,0.036
1750,,,2.8835429902475633,0.036
1751,,,2.8836053542626585,0.036
1752,,,2.8836053542626585,0.072
1753,,,2.888856660041964,0.072
1754,,,2.8899747513301177,0.072
1755,,,2.8903008350230577,0.072
1756,,,2.8903008350230577,0.108
1757,,,2.891459458289094,0.108
1758,,,2.8917271017516137,0.108
1759,,,2.8917379661791687,0.108
1760,,,2.8917379661791687,0.144
1761,,,2.8931111946237076,0.144
1762,,,2.905730277876949,0.0
1763,,,2.9104383356254298,0.0
1764,,,2.9120892668615346,0.0
1765,,,2.9120983894066574,0.0
1766,,,2.9127513122146853,0.0
1767,,,2.9162939717983063,0.0
1768,,,2.9182870765000066,0.0
1769,,,2.918632795337822,0.0
1770,,,2.9199960930079056,0.0
1771,,,2.9199960930079056,0.036
1772,,,2.925931429001749,0.036
1773,,,2.926532062073769,0.036
1774,,,2.926539501150711,0.036
1775,,,2.926539501150711,0.072
1776,,,2.929032841001848,0.072
1777,,,2.9304535240948804,0.072
1778,,,2.930663671397215,0.072
1779,,,2.930663671397215,0.108
1780,,,2.9400480485909766,0.108
1781,,,2.9413711655367267,0.108
1782,,,2.941473585840769,0.108
1783,,,2.941473585840769,0.144
1784,,,2.9459042231895216,0.144
1785,,,2.94791207083546,0.144
1786,,,2.9481849521209957,0.144
1787,,,2.9481849521209957,0.18
1788,,,2.9531659329349944,0.18
1789,,,2.9536944229492734,0.18
1790,,,2.9558627327219655,0.18
1791,,,2.9558937202221545,0.18
1792,,,2.956038826793521,0.0
1793,,,2.9577741715404544,0.0
1794,,,2.9584015475683296,0.0
1795,,,2.958614847699148,0.0
1796,,,2.958614847699148,0.036
1797,,,2.9740483246173524,0.036
1798,,,2.975838488609395,0.036
1799,,,2.9759186472863304,0.036
1800,,,2.9759186472863304,0.072
1801,,,2.9766070087466394,0.072
1802,,,2.976611001828652,0.072
1803,,,2.976624725719865,0.072
1804,,,2.976624725719865,0.108
1805,,,2.98065547381126,0.108
1806,,,2.9821621817588335,0.108
1807,,,2.9858426561041798,0.108
1808,,,2.98891446588678,0.108
1809,,,2.9909105601020594,0.108
1810,,,2.9915512670164626,0.0
1811,,,2.992211874669322,0.0
1812,,,2.9925534223308565,0.0
1813,,,2.993294461634277,0.0
1814,,,2.993294461634277,0.036
1815,,,2.994277084143662,0.036
1816,,,2.9946143086346213,0.0
1817,,,3.0094406363673007,0.0
1818,,,3.016502189642117,0.0
1819,,,3.0188493133501444,0.0
1820,,,3.0189480753255493,0.0
1821,,,3.0193167077100336,0.0
1822,,,3.0193167077100336,0.036
1823,,,3.0229094394945646,0.036
1824,,,3.0248066195886123,0.036
1825,,,3.0248279567537226,0.036
1826,,,3.0248279567537226,0.072
1827,,,3.0311994459156653,0.072
1828,,,3.033513973646609,0.0
1829,,,3.036727363357085,0.0
1830,,,3.038112915793527,0.0
1831,,,3.0381615448919,0.0
1832,,,3.038181035381405,0.0
1833,,,3.038566484470244,0.0
1834,,,3.038566484470244,0.036
1835,,,3.039441888230704,0.036
1836,,,3.0414579432328592,0.036
1837,,,3.041708155337896,0.036
1838,,,3.041708155337896,0.072
1839,,,3.0485460256334944,0.072
1840,,,3.048802910601519,0.072
1841,,,3.057569799590506,0.072
1842,,,3.057953000822196,0.072
1843,,,3.0626948559373774,0.072
1844,,,3.0631389725953904,0.0
1845,,,3.0648251165311384,0.0
1846,,,3.0662702443827454,0.0
1847,,,3.066358810841744,0.0
1848,,,3.066358810841744,0.036
1849,,,3.0684267358755752,0.036
1850,,,3.071024833370804,0.036
1851,,,3.071172328647733,0.036
1852,,,3.071172328647733,0.072
1853,,,3.0840177522002437,0.072
1854,,,3.084632446091393,0.072
1855,,,3.08494253744088,0.072
1856,,,3.08494253744088,0.108
1857,,,3.087716761884894,0.108
1858,,,3.0882639329010617,0.108
1859,,,3.088278181207813,0.108
1860,,,3.088278181207813,0.144
1861,,,3.088669507414928,0.144
1862,,,3.0888301118347234,0.0
1863,,,3.089770706927296,0.0
1864,,,3.089960161286032,0.0
1865,,,3.0917546916546526,0.0
1866,,,3.091906934176772,0.0
1867,,,3.093411283335308,0.0
1868,,,3.0935063571303614,0.0
1869,,,3.09356810303973,0.0
1870,,,3.09356810303973,0.036
1871,,,3.0958219935583022,0.036
1872,,,3.0969445620397265,0.036
1873,,,3.0977016495280685,0.036
1874,,,3.0977016495280685,0.072
1875,,,3.102834077985574,0.072
1876,,,3.1028547336044108,0.072
1877,,,3.1030881397020744,0.072
1878,,,3.1030881397020744,0.108
1879,,,3.1039523788204564,0.108
1880,,,3.1040671647585034,0.0
1881,,,3.1047588899105234,0.0
1882,,,3.105039380751065,0.0
1883,,,3.105228171247332,0.0
1884,,,3.105228171247332,0.036
1885,,,3.1094292728347304,0.036
1886,,,3.111861771401137,0.036
1887,,,3.1129649486918707,0.036
1888,,,3.1129649486918707,0.072
1889,,,3.1184439901902357,0.072
1890,,,3.1223875554156573,0.0
1891,,,3.1232267665334588,0.0
1892,,,3.123399920144009,0.0
1893,,,3.1237603364815536,0.0
1894,,,3.1237603364815536,0.036
1895,,,3.1268433278511347,0.036
1896,,,3.126915034253062,0.036
1897,,,3.127063029609329,0.0
1898,,,3.1288261706550893,0.0
1899,,,3.1295662417666934,0.0
1900,,,3.130301199768417,0.0
1901,,,3.130301199768417,0.036
1902,,,3.1338096629475567,0.036
1903,,,3.134639916583793,0.036
1904,,,3.135716049970971,0.0
1905,,,3.1411300048163318,0.0
1906,,,3.1429436329912273,0.0
1907,,,3.14434868201029,0.0
1908,,,3.145394355735248,0.0
1909,,,3.1455843079287975,0.0
1910,,,3.1455843079287975,0.036
1911,,,3.1472183972845853,0.036
1912,,,3.1482905364783926,0.036
1913,,,3.1488115220716475,0.036
1914,,,3.1488115220716475,0.072
1915,,,3.1543609623918227,0.072
1916,,,3.1546795567915007,0.0
1917,,,3.159569593945032,0.0
1918,,,3.1603021199357473,0.0
1919,,,3.161406807812271,0.0
1920,,,3.1617507225473664,0.0
1921,,,3.165028128770513,0.0
1922,,,3.166291690130328,0.0
1923,,,3.179088669051267,0.0
1924,,,3.180410324062602,0.0
1925,,,3.180676154260868,0.0
1926,,,3.18126949748049,0.0
1927,,,3.1813333099800802,0.0
1928,,,3.182014049233236,0.0
1929,,,3.182014049233236,0.036
1930,,,3.1918113672118062,0.036
1931,,,3.1926472467214486,0.036
1932,,,3.1928806225540027,0.036
1933,,,3.1928806225540027,0.072
1934,,,3.1940459009813287,0.072
1935,,,3.1954107323347776,0.072
1936,,,3.1954744960729515,0.072
1937,,,3.1954744960729515,0.108
1938,,,3.2020535159652495,0.108
1939,,,3.207295928619522,0.0
1940,,,3.2141803418771415,0.0
1941,,,3.2184011029773094,0.0
1942,,,3.223836648381071,0.0
1943,,,3.2242911774710956,0.0
1944,,,3.224579078812158,0.0
1945,,,3.224579078812158,0.036
1946,,,3.229935594657113,0.036
1947,,,3.230694454660381,0.036
1948,,,3.230776987090647,0.036
1949,,,3.230776987090647,0.072
1950,,,3.231268778561481,0.072
1951,,,3.2315235432132807,0.072
1952,,,3.2317219147394214,0.072
1953,,,3.2317219147394214,0.108
1954,,,3.2321373281483057,0.108
1955,,,3.2334743489184286,0.0
1956,,,3.238934946270425,0.0
1957,,,3.2391491588015624,0.0
1958,,,3.2415077720803174,0.0
1959,,,3.2504291448331655,0.0
1960,,,3.2604300777468938,0.0
1961,,,3.2620030774002045,0.0
1962,,,3.265513436455177,0.0
1963,,,3.2658234372980006,0.0
1964,,,3.2658480961262866,0.0
1965,,,3.2658480961262866,0.036
1966,,,3.270902800975688,0.036
1967,,,3.271688063509937,0.036
1968,,,3.2718592580948256,0.036
1969,,,3.2718592580948256,0.072
1970,,,3.277860864511635,0.072
1971,,,3.2786341969387616,0.0
1972,,,3.2795103880571554,0.0
1973,,,3.280077918540189,0.0
1974,,,3.2806197968260635,0.0
1975,,,3.2806197968260635,0.036
1976,,,3.281961246215112,0.036
1977,,,3.282251650486354,0.036
1978,,,3.2824867821583075,0.0
1979,,,3.2891593712562175,0.0
1980,,,3.2908872203166633,0.0
1981,,,3.2989699767559193,0.0
1982,,,3.299294718815088,0.0
1983,,,3.299483763577265,0.0
1984,,,3.299483763577265,0.036
1985,,,3.303745531093422,0.036
1986,,,3.3046606094144773,0.036
1987,,,3.3048787505922617,0.036
1988,,,3.3048787505922617,0.072
1989,,,3.3056129530478797,0.072
1990,,,3.30701801972823,0.072
1991,,,3.3071641039692983,0.072
1992,,,3.3071641039692983,0.108
1993,,,3.315992386951881,0.108
1994,,,3.316699557022793,0.108
1995,,,3.3167105561400794,0.108
1996,,,3.3167105561400794,0.144
1997,,,3.317833306152818,0.144
1998,,,3.319431022724202,0.144
1999,,,3.324889502945548,0.144
2000,,,3.3281329386294756,0.144
2001,,,3.3376572218077323,0.144
2002,,,3.338332199751995,0.144
2003,,,3.338523143419434,0.144
2004,,,3.338523143419434,0.18
2005,,,3.3450592014553004,0.18
2006,,,3.3452398007764534,0.18
2007,,,3.345251878940105,0.18
2008,,,3.345251878940105,0.216
2009,,,3.3458728709722427,0.216
2010,,,3.3462173073477297,0.216
2011,,,3.3471152834861746,0.216
2012,,,3.3471152834861746,0.252
2013,,,3.348453997699015,0.252
2014,,,3.354272354859929,0.252
2015,,,3.357646986532033,0.252
2016,,,3.3576936820502636,0.252
2017,,,3.3577184439342522,0.252
2018,,,3.3577184439342522,0.288
2019,,,3.3586208390247902,0.288
2020,,,3.3591383466006866,0.288
2021,,,3.367483964140537,0.288
2022,,,3.368198117954262,0.0
2023,,,3.3719062570511857,0.0
2024,,,3.37253450445698,0.0
2025,,,3.372669693898069,0.0
2026,,,3.372669693898069,0.036
2027,,,3.3727330775597677,0.036
2028,,,3.3727548159372125,0.036
2029,,,3.372810984684068,0.036
2030,,,3.372810984684068,0.072
2031,,,3.3771593049828583,0.072
2032,,,3.378972603699814,0.072
2033,,,3.3800353034507795,0.072
2034,,,3.3800353034507795,0.108
2035,,,3.393544474248249,0.108
2036,,,3.393753667726979,0.108
2037,,,3.393870403440114,0.108
2038,,,3.393870403440114,0.144
2039,,,3.3971273398361364,0.144
2040,,,3.397424927986079,0.0
2041,,,3.404441358700816,0.0
2042,,,3.4086945023833772,0.0
2043,,,3.409275111586152,0.0
2044,,,3.410055585270343,0.0
2045,,,3.4107707512742556,0.0
2046,,,3.4107707512742556,0.036
2047,,,3.423451916605196,0.036
2048,,,3.4239466149286004,0.036
2049,,,3.4257015552762278,0.036
2050,,,3.4257015552762278,0.072
2051,,,3.4279080721425794,0.072
2052,,,3.4286064133203515,0.072
2053,,,3.4290138974033413,0.0
2054,,,3.430952570397932,0.0
2055,,,3.4322810679697,0.0
2056,,,3.4384719281142795,0.0
2057,,,3.439858160672803,0.0
2058,,,3.440439495642342,0.0
2059,,,3.440439495642342,0.036
2060,,,3.446772469700453,0.036
2061,,,3.4491666392761493,0.036
2062,,,3.4508038183567455,0.036
2063,,,3.4508038183567455,0.072
2064,,,3.4541682592768153,0.072
2065,,,3.461219921406493,0.0
2066,,,3.4668852466530806,0.0
2067,,,3.468426009898308,0.0
2068,,,3.4685941554226707,0.0
2069,,,3.4685941554226707,0.036
2070,,,3.4690157509076647,0.036
2071,,,3.469137253337599,0.036
2072,,,3.469382970052183,0.036
2073,,,3.469382970052183,0.072
2074,,,3.475748275270134,0.072
2075,,,3.4762431061786137,0.072
2076,,,3.4767647878105725,0.072
2077,,,3.4767647878105725,0.108
2078,,,3.478725421106824,0.108
2079,,,3.480948196513764,0.0
2080,,,3.4825844153788994,0.0
2081,,,3.4834391085725054,0.0
2082,,,3.4859930549847773,0.0
2083,,,3.488914528032102,0.0
2084,,,3.489040788308201,0.0
2085,,,3.4908239143817577,0.0
2086,,,3.491271407877517,0.0
2087,,,3.491271407877517,0.036
2088,,,3.498133810666766,0.036
2089,,,3.498683514364747,0.0
2090,,,3.504743241001557,0.0
2091,,,3.5055630840727465,0.0
2092,,,3.5061420680645137,0.0
2093,,,3.5061420680645137,0.036
2094,,,3.511573127648231,0.036
2095,,,3.5127888350620013,0.036
2096,,,3.5142222727750605,0.036
2097,,,3.5142222727750605,0.072
2098,,,3.5157849254922846,0.072
2099,,,3.51933422564401,0.072
2100,,,3.5272359289555224,0.072
2101,,,3.527397181593236,0.072
2102,,,3.527682795848576,0.072
2103,,,3.527682795848576,0.108
2104,,,3.5324467619388633,0.108
2105,,,3.5325210645264873,0.0
2106,,,3.533416818074742,0.0
2107,,,3.5338586110785526,0.0
2108,,,3.5346645923745212,0.0
2109,,,3.5364438082277134,0.0
2110,,,3.539780931803059,0.0
2111,,,3.5410984957519807,0.0
2112,,,3.5435105626093124,0.0
2113,,,3.5435105626093124,0.036
2114,,,3.545696736324854,0.036
2115,,,3.546005844892311,0.036
2116,,,3.5462129203415254,0.036
2117,,,3.5462129203415254,0.072
2118,,,3.551354991690883,0.072
2119,,,3.5533836523384617,0.0
2120,,,3.5551715104494024,0.0
2121,,,3.55630555342388,0.0
2122,,,3.556352603562405,0.0
2123,,,3.5573271032732228,0.0
2124,,,3.5646480861058203,0.0
2125,,,3.566251306622733,0.0
2126,,,3.575420781881559,0.0
2127,,,3.5778427031650777,0.0
2128,,,3.5779402828483127,0.0
2129,,,3.579454994274971,0.0
2130,,,3.580044483976317,0.0
2131,,,3.580044483976317,0.036
2132,,,3.5817750551835124,0.036
2133,,,3.582216477533998,0.036
2134,,,3.582351635674839,0.036
2135,,,3.582351635674839,0.072
2136,,,3.5837954523399,0.072
2137,,,3.5894172318536173,0.072
2138,,,3.5910348035739945,0.072
2139,,,3.591426432459781,0.0
2140,,,3.5918078702199745,0.0
2141,,,3.6017215922385803,0.0
2142,,,3.602370524000457,0.0
2143,,,3.602994847921548,0.0
2144,,,3.6032346358977945,0.0
2145,,,3.6032346358977945,0.036
2146,,,3.603711005333998,0.036
2147,,,3.6037938260217404,0.0
2148,,,3.607171214137291,0.0
2149,,,3.6094458366518003,0.0
2150,,,3.609820928867392,0.0
2151,,,3.609820928867392,0.036
2152,,,3.6104029073443593,0.036
2153,,,3.6111802531779675,0.036
2154,,,3.6112594236532596,0.036
2155,,,3.6112594236532596,0.072
2156,,,3.6139188121127903,0.072
2157,,,3.614148543488599,0.072
2158,,,3.614380958953375,0.072
2159,,,3.614380958953375,0.108
2160,,,3.6158363184402864,0.108
2161,,,3.6171237124756344,0.108
2162,,,3.617665507353906,0.108
2163,,,3.617665507353906,0.144
2164,,,3.621691897419349,0.144
2165,,,3.6234660647757364,0.144
2166,,,3.623845490745704,0.144
2167,,,3.623845490745704,0.18
2168,,,3.6258180221428136,0.18
2169,,,3.6261911890066445,0.18
2170,,,3.626248404062255,0.18
2171,,,3.626248404062255,0.216
2172,,,3.627333682382157,0.216
2173,,,3.627833186509892,0.216
2174,,,3.6280662546052396,0.216
2175,,,3.6280662546052396,0.252
2176,,,3.634860889936159,0.252
2177,,,3.6350274495952357,0.252
2178,,,3.6412278069890496,0.252
2179,,,3.641761748314196,0.252
2180,,,3.6420867140493867,0.252
2181,,,3.6420867140493867,0.288
2182,,,3.652473381437482,0.288
2183,,,3.6541244145669696,0.0
2184,,,3.6561563835212736,0.0
2185,,,3.656376646621454,0.0
2186,,,3.656529616803689,0.0
2187,,,3.656529616803689,0.036
2188,,,3.6598927983359077,0.036
2189,,,3.660469007454224,0.036
2190,,,3.661186003685752,0.036
2191,,,3.6616965598267717,0.0
2192,,,3.663391715285237,0.0
2193,,,3.6643392989340944,0.0
2194,,,3.6644944466208864,0.0
2195,,,3.6644944466208864,0.036
2196,,,3.667888178548524,0.036
2197,,,3.669323491202376,0.0
2198,,,3.6833596439904257,0.0
2199,,,3.686137372061949,0.0
2200,,,3.6878301595555802,0.0
2201,,,3.688287596769201,0.0
2202,,,3.6892778157547204,0.0
2203,,,3.6898510428222417,0.0
2204,,,3.693986116094565,0.0
2205,,,3.6944571639010393,0.0
2206,,,3.7009020629271694,0.0
2207,,,3.701324462195408,0.0
2208,,,3.702422292812904,0.0
2209,,,3.702422292812904,0.036
2210,,,3.7060851690093655,0.036
2211,,,3.7070881556922304,0.0
2212,,,3.7071898897089026,0.0
2213,,,3.708472953344704,0.0
2214,,,3.7096091912983207,0.0
2215,,,3.7096091912983207,0.036
2216,,,3.711849517832335,0.036
2217,,,3.7197367466044016,0.0
2218,,,3.731316517762509,0.0
2219,,,3.73155111785674,0.0
2220,,,3.7325194779040425,0.0
2221,,,3.7325194779040425,0.036
2222,,,3.736240144478141,0.036
2223,,,3.7403187001942877,0.0
2224,,,3.742891534618832,0.0
2225,,,3.7431336046046537,0.0
2226,,,3.7435920604623663,0.0
2227,,,3.7435920604623663,0.036
2228,,,3.7507936420043917,0.036
2229,,,3.7526084299394507,0.036
2230,,,3.759496039246529,0.036
2231,,,3.7647686886884033,0.036
2232,,,3.7649422025779637,0.036
2233,,,3.7649422025779637,0.072
2234,,,3.768342818450649,0.072
2235,,,3.7714558808693477,0.072
2236,,,3.771677326046931,0.072
2237,,,3.771677326046931,0.108
2238,,,3.7734820594527525,0.108
2239,,,3.7737697524919716,0.0
2240,,,3.774766461856424,0.0
2241,,,3.7750499067839423,0.0
2242,,,3.775310382849532,0.0
2243,,,3.775310382849532,0.036
2244,,,3.7762806482043088,0.036
2245,,,3.778669077749444,0.036
2246,,,3.7800155686610646,0.036
2247,,,3.7800155686610646,0.072
2248,,,3.7813378905448944,0.072
2249,,,3.7815492568444506,0.072
2250,,,3.7815551935986162,0.072
2251,,,3.7815551935986162,0.108
2252,,,3.7844761971732828,0.108
2253,,,3.787845218557247,0.0
2254,,,3.7929274768958434,0.0
2255,,,3.8086314267525614,0.0
2256,,,3.8102715764504334,0.0
2257,,,3.8126301047571305,0.0
2258,,,3.8126565137780792,0.0
2259,,,3.8126565137780792,0.036
2260,,,3.8151887054285067,0.036
2261,,,3.8163217558064195,0.036
2262,,,3.8164584027556456,0.036
2263,,,3.8164584027556456,0.072
2264,,,3.8215636348630495,0.072
2265,,,3.821995705464464,0.0
2266,,,3.823792306939125,0.0
2267,,,3.8264019459132976,0.0
2268,,,3.8273041219797816,0.0
2269,,,3.8273041219797816,0.036
2270,,,3.828139799716607,0.036
2271,,,3.832190561391765,0.036
2272,,,3.833236619510214,0.036
2273,,,3.8356662346648394,0.036
2274,,,3.8358758574117084,0.036
2275,,,3.8358758574117084,0.072
2276,,,3.8402601021922385,0.072
2277,,,3.8410111472319377,0.072
2278,,,3.84114830232165,0.072
2279,,,3.84114830232165,0.108
2280,,,3.8439658580312157,0.108
2281,,,3.8446251360926977,0.108
2282,,,3.8449115102956535,0.108
2283,,,3.8449115102956535,0.144
2284,,,3.8455573855140956,0.144
2285,,,3.846659072987955,0.144
2286,,,3.8466789472388454,0.144
2287,,,3.8466789472388454,0.18
2288,,,3.8488168602952983,0.18
2289,,,3.8497058566512505,0.18
2290,,,3.8499184470732724,0.18
2291,,,3.8499184470732724,0.216
2292,,,3.8520075600829964,0.216
2293,,,3.852421572522794,0.216
2294,,,3.8525581413050185,0.216
2295,,,3.8525581413050185,0.252
2296,,,3.8541842872876737,0.252
2297,,,3.857125238152535,0.252
2298,,,3.8582854288088475,0.252
2299,,,3.8589524012218552,0.252
2300,,,3.85898941227424,0.252
2301,,,3.85898941227424,0.288
2302,,,3.8632586096994137,0.288
2303,,,3.8641040314728405,0.288
2304,,,3.8644761766201805,0.288
2305,,,3.8644761766201805,0.324
2306,,,3.871337202192554,0.324
2307,,,3.8727349871245016,0.324
2308,,,3.873063273635098,0.324
2309,,,3.873063273635098,0.36
2310,,,3.8769043920864545,0.36
2311,,,3.8776616741073235,0.36
2312,,,3.878573546238914,0.36
2313,,,3.878573546238914,0.396
2314,,,3.879638645305694,0.396
2315,,,3.8797767991542083,0.0
2316,,,3.8805630109118914,0.0
2317,,,3.8824734173471738,0.0
2318,,,3.8827159477310245,0.0
2319,,,3.8827159477310245,0.036
2320,,,3.9050335717844264,0.036
2321,,,3.9057641998881474,0.036
2322,,,3.9058831768688043,0.036
2323,,,3.9058831768688043,0.072
2324,,,3.911252587426911,0.072
2325,,,3.911257585305985,0.072
2326,,,3.9114843239258184,0.072
2327,,,3.9114843239258184,0.108
2328,,,3.9135665005319895,0.108
2329,,,3.9136860038482135,0.108
2330,,,3.9137220253320857,0.108
2331,,,3.9137220253320857,0.144
2332,,,3.914501714024161,0.144
2333,,,3.9148966715931826,0.144
2334,,,3.915123679097234,0.144
2335,,,3.915123679097234,0.18
2336,,,3.9168707110865464,0.18
2337,,,3.9171994476082306,0.18
2338,,,3.917207554912161,0.18
2339,,,3.917207554912161,0.216
2340,,,3.927208751738042,0.216
2341,,,3.927928576915881,0.216
2342,,,3.9282150992303473,0.216
2343,,,3.9282150992303473,0.252
2344,,,3.934421347558266,0.252
2345,,,3.9369660562559394,0.0
2346,,,3.938069547353039,0.0
2347,,,3.9387189469648147,0.0
2348,,,3.93933692196095,0.0
2349,,,3.9401203075214513,0.0
2350,,,3.943453854067646,0.0
2351,,,3.9486708351198923,0.0
2352,,,3.949031086404104,0.0
2353,,,3.949741383803704,0.0
2354,,,3.949741383803704,0.036
2355,,,3.9541909477693524,0.036
2356,,,3.9567761831509953,0.036
2357,,,3.9576430433878427,0.0
2358,,,3.959046400109904,0.0
2359,,,3.96105595174154,0.0
2360,,,3.962356202176619,0.0
2361,,,3.962356202176619,0.036
2362,,,3.9626760349652477,0.036
2363,,,3.9739230547432465,0.036
2364,,,3.975977648465414,0.036
2365,,,3.976755348090335,0.0
2366,,,3.9796714144430174,0.0
2367,,,3.981998948084324,0.0
2368,,,3.983730037931978,0.0
2369,,,3.9858852507362164,0.0
2370,,,3.987833732091194,0.0
2371,,,3.9878395608581068,0.0
2372,,,3.9879058217782353,0.0
2373,,,3.9879058217782353,0.036
2374,,,3.988779141278667,0.036
2375,,,3.997611709147084,0.036
2376,,,4.009563001265538,0.036
2377,,,4.009887448467393,0.036
2378,,,4.009900673101419,0.036
2379,,,4.009900673101419,0.072
2380,,,4.0112981499147,0.072
2381,,,4.012567936822562,0.0
2382,,,4.017741120148924,0.0
2383,,,4.0209997456754225,0.0
2384,,,4.0305381694302715,0.0
2385,,,4.030883600941357,0.0
2386,,,4.0310632469697625,0.0
2387,,,4.0310632469697625,0.036
2388,,,4.033406026663154,0.036
2389,,,4.037643757294851,0.036
2390,,,4.038671866262109,0.036
2391,,,4.040872891611133,0.036
2392,,,4.04235797691855,0.036
2393,,,4.042781103472751,0.036
2394,,,4.042983999435092,0.036
2395,,,4.042983999435092,0.072
2396,,,4.044233665113077,0.072
2397,,,4.044451973634046,0.072
2398,,,4.0450207906846805,0.0
2399,,,4.0595353992790875,0.0
2400,,,4.059858417396353,0.0
2401,,,4.060671902857941,0.0
2402,,,4.060671902857941,0.036
2403,,,4.061721088162485,0.036
2404,,,4.0620964123688355,0.036
2405,,,4.06234198449279,0.036
2406,,,4.06234198449279,0.072
2407,,,4.069019714562391,0.072
2408,,,4.069506272410046,0.072
2409,,,4.069616932970908,0.072
2410,,,4.069616932970908,0.108
2411,,,4.074330118297625,0.108
2412,,,4.074678368316843,0.108
2413,,,4.075053786417471,0.108
2414,,,4.075053786417471,0.144
2415,,,4.075278346837568,0.144
2416,,,4.075511738357311,0.144
2417,,,4.075545955242789,0.144
2418,,,4.075545955242789,0.18
2419,,,4.08123297932745,0.18
2420,,,4.081293412154836,0.18
2421,,,4.081484343164234,0.18
2422,,,4.081484343164234,0.216
2423,,,4.084782554358939,0.216
2424,,,4.084820420053215,0.216
2425,,,4.084921907093816,0.216
2426,,,4.084921907093816,0.252
2427,,,4.087153912834469,0.252
2428,,,4.087513315152486,0.252
2429,,,4.089725773598059,0.252
2430,,,4.089725773598059,0.288
2431,,,4.091356056557696,0.288
2432,,,4.091641828220218,0.288
2433,,,4.0918478148356305,0.288
2434,,,4.0918478148356305,0.324
2435,,,4.101767721385213,0.324
2436,,,4.103239562507226,0.324
2437,,,4.105386182729496,0.324
2438,,,4.10553859020803,0.0
2439,,,4.106083856285058,0.0
2440,,,4.106788537330236,0.0
2441,,,4.107313581041061,0.0
2442,,,4.107313581041061,0.036
2443,,,4.110984260783346,0.036
2444,,,4.111303295223602,0.036
2445,,,4.111542438362913,0.036
2446,,,4.111542438362913,0.072
2447,,,4.111889128845722,0.072
2448,,,4.112645347169416,0.072
2449,,,4.113742124856434,0.072
2450,,,4.114951158791739,0.072
2451,,,4.115183551945408,0.072
2452,,,4.115183551945408,0.108
2453,,,4.116598556999034,0.108
2454,,,4.11731719793008,0.108
2455,,,4.117680013706466,0.108
2456,,,4.117680013706466,0.144
2457,,,4.120153586781071,0.144
2458,,,4.120199021732142,0.144
2459,,,4.120536729281793,0.144
2460,,,4.120536729281793,0.18
2461,,,4.120872598246394,0.18
2462,,,4.121158159054603,0.18
2463,,,4.121368018502188,0.18
2464,,,4.121368018502188,0.216
2465,,,4.12175667648208,0.216
2466,,,4.1217634964964835,0.216
2467,,,4.121832736786062,0.216
2468,,,4.121832736786062,0.252
2469,,,4.134640736203125,0.252
2470,,,4.135457783322399,0.252
2471,,,4.135954965361855,0.252
2472,,,4.135954965361855,0.288
2473,,,4.1368552918893,0.288
2474,,,4.137402853545578,0.288
2475,,,4.138777261927014,0.288
2476,,,4.138777261927014,0.324
2477,,,4.14374985377109,0.324
2478,,,4.144579575177548,0.324
2479,,,4.144862250568887,0.324
2480,,,4.144862250568887,0.36
2481,,,4.150967895891715,0.36
2482,,,4.151066297334602,0.36
2483,,,4.151144657258828,0.36
2484,,,4.151144657258828,0.396
2485,,,4.153530818361614,0.396
2486,,,4.153569686629335,0.396
2487,,,4.154060435984898,0.396
2488,,,4.154060435984898,0.432
2489,,,4.158445060374741,0.432
2490,,,4.1603720464497576,0.0
2491,,,4.160881912901048,0.0
2492,,,4.161909753378063,0.0
2493,,,4.162163632451851,0.0
2494,,,4.162163632451851,0.036
2495,,,4.169345641438615,0.036
2496,,,4.169911243788088,0.036
2497,,,4.170395223221134,0.0
2498,,,4.184964096840834,0.0
2499,,,4.185486716669179,0.0
2500,,,4.185742348812851,0.0
2501,,,4.185742348812851,0.036
2502,,,4.186038198913663,0.036
2503,,,4.186528262467372,0.036
2504,,,4.188408051276794,0.036
2505,,,4.188691799290061,0.036
2506,,,4.18897651416787,0.036
2507,,,4.18897651416787,0.072
2508,,,4.1939148697236925,0.072
2509,,,4.196048229586213,0.072
2510,,,4.196130229463143,0.072
2511,,,4.196130229463143,0.108
2512,,,4.198122030231667,0.108
2513,,,4.198219649235374,0.0
2514,,,4.205004186882792,0.0
2515,,,4.205165171856257,0.0
2516,,,4.208180163173727,0.0
2517,,,4.2093567194407315,0.0
2518,,,4.220518126259649,0.0
2519,,,4.22139933710629,0.0
2520,,,4.221575188010818,0.0
2521,,,4.221575188010818,0.036
2522,,,4.222917562695009,0.036
2523,,,4.22397951826501,0.036
2524,,,4.224243340158712,0.036
2525,,,4.224243340158712,0.072
2526,,,4.227501789646554,0.072
2527,,,4.228227566388669,0.072
2528,,,4.228575072134077,0.072
2529,,,4.228575072134077,0.108
2530,,,4.231787692182304,0.108
2531,,,4.232778774036928,0.108
2532,,,4.2335034855707105,0.108
2533,,,4.2335034855707105,0.144
2534,,,4.236202534798509,0.144
2535,,,4.2373812176511185,0.144
2536,,,4.244015505835976,0.144
2537,,,4.244035865772481,0.0
2538,,,4.244802559847494,0.0
2539,,,4.244839470065556,0.0
2540,,,4.245391115126968,0.0
2541,,,4.245391115126968,0.036
2542,,,4.246411058368982,0.036
2543,,,4.247543780250184,0.036
2544,,,4.248012855259501,0.036
2545,,,4.248012855259501,0.072
2546,,,4.252732712089835,0.072
2547,,,4.257756762218032,0.0
2548,,,4.2639678033763415,0.0
2549,,,4.264867604393808,0.0
2550,,,4.27161695401782,0.0
2551,,,4.2726690677132,0.0
2552,,,4.274261091471874,0.0
2553,,,4.27449580217757,0.0
2554,,,4.274554676487534,0.0
2555,,,4.275176091795706,0.0
2556,,,4.275176091795706,0.036
2557,,,4.2806291460013,0.036
2558,,,4.281762337957228,0.036
2559,,,4.282225743985559,0.0
2560,,,4.28232126194555,0.0
2561,,,4.2828613805759455,0.0
2562,,,4.282866433665904,0.0
2563,,,4.282866433665904,0.036
2564,,,4.2876300962609095,0.036
2565,,,4.288402872148901,0.036
2566,,,4.288636806895318,0.036
2567,,,4.288636806895318,0.072
2568,,,4.289041866606968,0.072
2569,,,4.28969744667284,0.0
2570,,,4.29346320116083,0.0
2571,,,4.293507410400642,0.0
2572,,,4.293530763507246,0.0
2573,,,4.293530763507246,0.036
2574,,,4.296640557328758,0.036
2575,,,4.29771810253541,0.036
2576,,,4.29777172706718,0.036
2577,,,4.29777172706718,0.072
2578,,,4.304056873462815,0.072
2579,,,4.310587267059952,0.0
2580,,,4.317682292107148,0.0
2581,,,4.317883817993963,0.0
2582,,,4.318547527279908,0.0
2583,,,4.318547527279908,0.036
2584,,,4.3211298967728355,0.036
2585,,,4.321681810459574,0.036
2586,,,4.3218292005487475,0.036
2587,,,4.3218292005487475,0.072
2588,,,4.323775050777901,0.072
2589,,,4.324592193937787,0.072
2590,,,4.325069841336393,0.072
2591,,,4.325069841336393,0.108
2592,,,4.327190849351177,0.108
2593,,,4.327351671274047,0.108
2594,,,4.327383367809792,0.108
2595,,,4.327383367809792,0.144
2596,,,4.3282967778483625,0.144
2597,,,4.330299694635818,0.144
2598,,,4.33094750514788,0.144
2599,,,4.33094750514788,0.18
2600,,,4.345927558221807,0.18
2601,,,4.346565545199913,0.18
2602,,,4.347171181072087,0.18
2603,,,4.347171181072087,0.216
2604,,,4.349743509538857,0.216
2605,,,4.3501853003241715,0.216
2606,,,4.350286121336798,0.216
2607,,,4.350286121336798,0.252
2608,,,4.357533146946708,0.252
2609,,,4.357647245521984,0.252
2610,,,4.358082420133493,0.252
2611,,,4.358082420133493,0.288
2612,,,4.374129686730281,0.288
2613,,,4.37418605007901,0.288
2614,,,4.375220805207399,0.288
2615,,,4.375220805207399,0.324
2616,,,4.380943795464112,0.324
2617,,,4.381453344607448,0.324
2618,,,4.381596541315482,0.324
2619,,,4.381596541315482,0.36
2620,,,4.385702792262486,0.36
2621,,,4.386281893065212,0.36
2622,,,4.387011862350202,0.36
2623,,,4.387011862350202,0.396
2624,,,4.399757393507913,0.396
2625,,,4.400481719743696,0.396
2626,,,4.400592198641953,0.396
2627,,,4.400592198641953,0.432
2628,,,4.40328491861393,0.432
2629,,,4.404922991580029,0.432
2630,,,4.404952298016879,0.432
2631,,,4.404952298016879,0.468
2632,,,4.4071637800513175,0.468
2633,,,4.407285359565365,0.468
2634,,,4.407570689689433,0.468
2635,,,4.407570689689433,0.504
2636,,,4.40926753529877,0.504
2637,,,4.410535748559474,0.504
2638,,,4.410975353093629,0.504
2639,,,4.4115567716460005,0.0
2640,,,4.413043786757098,0.0
2641,,,4.418622547591826,0.0
2642,,,4.419866368539821,0.0
2643,,,4.420232941430272,0.0
2644,,,4.420342663708282,0.0
2645,,,4.420342663708282,0.036
2646,,,4.420733623050421,0.036
2647,,,4.421921124629006,0.036
2648,,,4.421976536150038,0.0
2649,,,4.424725413400247,0.0
2650,,,4.42731596878354,0.0
2651,,,4.431712474923816,0.0
2652,,,4.433866863717225,0.0
2653,,,4.442300123997913,0.0
2654,,,4.442448747414994,0.0
2655,,,4.442765863402204,0.0
2656,,,4.442765863402204,0.036
2657,,,4.4559753633179,0.036
2658,,,4.456402192371617,0.036
2659,,,4.4564753536229995,0.036
2660,,,4.4564753536229995,0.072
2661,,,4.4773973390347015,0.072
2662,,,4.477914048233171,0.072
2663,,,4.478218306972601,0.072
2664,,,4.478218306972601,0.108
2665,,,4.478469480138837,0.108
2666,,,4.480110506504011,0.108
2667,,,4.480530648627316,0.108
2668,,,4.480530648627316,0.144
2669,,,4.480846665217361,0.144
2670,,,4.481008570902623,0.144
2671,,,4.481471274628066,0.144
2672,,,4.481471274628066,0.18
2673,,,4.488675040279664,0.18
2674,,,4.488797224192067,0.18
2675,,,4.489630489055187,0.18
2676,,,4.4903545173863835,0.18
2677,,,4.490841225785771,0.18
2678,,,4.490841225785771,0.216
2679,,,4.491383705164357,0.216
2680,,,4.491901078270236,0.216
2681,,,4.492831421143596,0.216
2682,,,4.492831421143596,0.252
2683,,,4.497130450233736,0.252
2684,,,4.4985528181342636,0.252
2685,,,4.501703166597873,0.252
2686,,,4.506109510906046,0.252
2687,,,4.513412977715585,0.252
2688,,,4.513433701126563,0.252
2689,,,4.513443772580492,0.252
2690,,,4.513443772580492,0.288
2691,,,4.5158002988737715,0.288
2692,,,4.516848514686992,0.0
2693,,,4.517142150109705,0.0
2694,,,4.518684667915713,0.0
2695,,,4.518980473425395,0.0
2696,,,4.518980473425395,0.036
2697,,,4.527372062137391,0.036
2698,,,4.528175074599964,0.036
2699,,,4.528288962498714,0.036
2700,,,4.528288962498714,0.072
2701,,,4.540434041304471,0.072
2702,,,4.541448149164373,0.072
2703,,,4.541455909589074,0.072
2704,,,4.541455909589074,0.108
2705,,,4.543643415807796,0.108
2706,,,4.543954649103104,0.108
2707,,,4.545076497768318,0.108
2708,,,4.545076497768318,0.144
2709,,,4.54614864310538,0.144
2710,,,4.548142533716265,0.0
2711,,,4.551418052753392,0.0
2712,,,4.551760919974835,0.0
2713,,,4.551841183042156,0.0
2714,,,4.551841183042156,0.036
2715,,,4.551903847733372,0.036
2716,,,4.55552930455324,0.036
2717,,,4.556086955050223,0.036
2718,,,4.556086955050223,0.072
2719,,,4.563591185079784,0.072
2720,,,4.565104206630747,0.0
2721,,,4.566782473148437,0.0
2722,,,4.568307402253484,0.0
2723,,,4.57281575650176,0.0
2724,,,4.574374937273963,0.0
2725,,,4.574382357390285,0.0
2726,,,4.574382357390285,0.036
2727,,,4.578667851122929,0.036
2728,,,4.580044596856946,0.036
2729,,,4.580154206637338,0.036
2730,,,4.580154206637338,0.072
2731,,,4.58502527537457,0.072
2732,,,4.585881704839994,0.072
2733,,,4.586680931950094,0.072
2734,,,4.586680931950094,0.108
2735,,,4.587877152935969,0.108
2736,,,4.588076569423294,0.108
2737,,,4.588816273957183,0.0
2738,,,4.5901118845226,0.0
2739,,,4.5906107488825585,0.0
2740,,,4.590691720463769,0.0
2741,,,4.590691720463769,0.036
2742,,,4.595084620074533,0.036
2743,,,4.596020106771738,0.036
2744,,,4.596260172504301,0.036
2745,,,4.596260172504301,0.072
2746,,,4.597723165098745,0.072
2747,,,4.598786011225891,0.0
2748,,,4.609572988583323,0.0
2749,,,4.6097430953786125,0.0
2750,,,4.609787857100797,0.0
2751,,,4.609787857100797,0.036
2752,,,4.611008851623416,0.036
2753,,,4.611341840530783,0.0
2754,,,4.617359742238061,0.0
2755,,,4.6174502664360935,0.0
2756,,,4.61783195342687,0.0
2757,,,4.61783195342687,0.036
2758,,,4.6186613718943414,0.036
2759,,,4.619312441125701,0.036
2760,,,4.619739995051924,0.036
2761,,,4.619739995051924,0.072
2762,,,4.620033466302362,0.072
2763,,,4.620604432297401,0.0
2764,,,4.622161652912678,0.0
2765,,,4.623033996036706,0.0
2766,,,4.623101138788145,0.0
2767,,,4.623101138788145,0.036
2768,,,4.635733662005829,0.036
2769,,,4.636012138427723,0.0
2770,,,4.637538132657654,0.0
2771,,,4.637907187159555,0.0
2772,,,4.637912753273933,0.0
2773,,,4.637912753273933,0.036
2774,,,4.641112681265603,0.036
2775,,,4.642840150030268,0.036
2776,,,4.643559866015969,0.036
2777,,,4.643559866015969,0.072
2778,,,4.6455885216785235,0.072
2779,,,4.645613625103304,0.072
2780,,,4.646626118288462,0.072
2781,,,4.646626118288462,0.108
2782,,,4.654258991411695,0.108
2783,,,4.655166251326929,0.0
2784,,,4.655295837815557,0.0
2785,,,4.6556709461244,0.0
2786,,,4.657987101479303,0.0
2787,,,4.658325548062021,0.0
2788,,,4.669740586133185,0.0
2789,,,4.669913940580439,0.0
2790,,,4.67138426901614,0.0
2791,,,4.672131824607104,0.0
2792,,,4.672190386404105,0.0
2793,,,4.672190386404105,0.036
2794,,,4.675613013355302,0.036
2795,,,4.679246376170952,0.036
2796,,,4.6798441573471985,0.036
2797,,,4.6798441573471985,0.072
2798,,,4.680682929041633,0.072
2799,,,4.680913929273044,0.072
2800,,,4.680965330215456,0.072
2801,,,4.680965330215456,0.108
2802,,,4.6895312188875655,0.108
2803,,,4.702685849083914,0.108
2804,,,4.7051613441217155,0.108
2805,,,4.705953814159021,0.108
2806,,,4.706008591500043,0.108
2807,,,4.706008591500043,0.144
2808,,,4.721848342281404,0.144
2809,,,4.722159710133087,0.144
2810,,,4.722501492445031,0.144
2811,,,4.722501492445031,0.18
2812,,,4.727232383135838,0.18
2813,,,4.732101314261544,0.18
2814,,,4.735511879176927,0.18
2815,,,4.736537322571576,0.18
2816,,,4.738371634535766,0.18
2817,,,4.738371634535766,0.216
2818,,,4.739855564853241,0.216
2819,,,4.74075974405219,0.216
2820,,,4.744797743436739,0.216
2821,,,4.744948631188403,0.216
2822,,,4.746969541989901,0.216
2823,,,4.746969541989901,0.252
2824,,,4.749945908857353,0.252
2825,,,4.754342298731273,0.252
2826,,,4.754833039770051,0.252
2827,,,4.754833039770051,0.288
2828,,,4.759052823470573,0.288
2829,,,4.762563172308224,0.288
2830,,,4.765956914040518,0.288
2831,,,4.766204220749276,0.288
2832,,,4.766281236361986,0.288
2833,,,4.766281236361986,0.324
2834,,,4.771952391499467,0.324
2835,,,4.772005721701196,0.324
2836,,,4.772631207433553,0.324
2837,,,4.772631207433553,0.36
2838,,,4.775189366877464,0.36
2839,,,4.775268079414469,0.36
2840,,,4.77566765795043,0.36
2841,,,4.77566765795043,0.396
2842,,,4.778178533033169,0.396
2843,,,4.778795291959981,0.396
2844,,,4.779678717946399,0.396
2845,,,4.779678717946399,0.432
2846,,,4.78073737375188,0.432
2847,,,4.781102839499959,0.432
2848,,,4.781781806783447,0.432
2849,,,4.781781806783447,0.468
2850,,,4.781807114919078,0.468
2851,,,4.784522041981229,0.468
2852,,,4.784734248943853,0.468
2853,,,4.784734248943853,0.504
2854,,,4.789163674681109,0.504
2855,,,4.7962862731075715,0.504
2856,,,4.79649408523252,0.504
2857,,,4.796602571623921,0.504
2858,,,4.796672215900132,0.504
2859,,,4.796672215900132,0.54
2860,,,4.8021787811650425,0.54
2861,,,4.802457672883631,0.54
2862,,,4.802547414776494,0.54
2863,,,4.802547414776494,0.576
2864,,,4.803739458775865,0.576
2865,,,4.804056977734125,0.576
2866,,,4.804081010549798,0.576
2867,,,4.804081010549798,0.612
2868,,,4.808753660630409,0.612
2869,,,4.808830934066717,0.612
2870,,,4.808962157658166,0.612
2871,,,4.808962157658166,0.648
2872,,,4.8124060469763,0.648
2873,,,4.816482658552842,0.0
2874,,,4.819973514799286,0.0
2875,,,4.821446554564601,0.0
2876,,,4.821665092143031,0.0
2877,,,4.8352662219367994,0.0
2878,,,4.835932897320023,0.0
2879,,,4.841638046727488,0.0
2880,,,4.842607024344741,0.0
2881,,,4.842746705263589,0.0
2882,,,4.842746705263589,0.036
2883,,,4.845015531220773,0.036
2884,,,4.845288462892287,0.0
2885,,,4.846989901418815,0.0
2886,,,4.84806308271924,0.0
2887,,,4.848214306414472,0.0
2888,,,4.848214306414472,0.036
2889,,,4.849112142618233,0.036
2890,,,4.8499901491981445,0.0
2891,,,4.855426458912011,0.0
2892,,,4.856351887261609,0.0
2893,,,4.859864681692621,0.0
2894,,,4.862780607463946,0.0
2895,,,4.884532636208916,0.0
2896,,,4.884912504722508,0.0
2897,,,4.886022183585088,0.0
2898,,,4.886022183585088,0.036
2899,,,4.88624176699746,0.036
2900,,,4.886602055523993,0.0
2901,,,4.888035125525028,0.0
2902,,,4.8886366751341805,0.0
2903,,,4.888705936982439,0.0
2904,,,4.888705936982439,0.036
2905,,,4.892712101511791,0.036
2906,,,4.893552600738478,0.036
2907,,,4.894476671043122,0.036
2908,,,4.894476671043122,0.072
2909,,,4.8969698638819485,0.072
2910,,,4.897116534740731,0.0
2911,,,4.9006913266037655,0.0
2912,,,4.9075304047357635,0.0
2913,,,4.916882087559039,0.0
2914,,,4.917127813897733,0.0
2915,,,4.917227567850168,0.0
2916,,,4.917227567850168,0.036
2917,,,4.920108160410288,0.036
2918,,,4.920157287309924,0.036
2919,,,4.920622951982302,0.036
2920,,,4.920622951982302,0.072
2921,,,4.9227322913258496,0.072
2922,,,4.924150937316859,0.072
2923,,,4.925071683097243,0.072
2924,,,4.925071683097243,0.108
2925,,,4.930395060340852,0.108
2926,,,4.930915570036205,0.108
2927,,,4.930964527363504,0.0
2928,,,4.9379390358401105,0.0
2929,,,4.938244991276169,0.0
2930,,,4.941544008282212,0.0
2931,,,4.942729315041714,0.0
2932,,,4.94326230739098,0.0
2933,,,4.94326230739098,0.036
2934,,,4.943751044305253,0.036
2935,,,4.9439659471670945,0.036
2936,,,4.945007761094874,0.036
2937,,,4.945007761094874,0.072
2938,,,4.949275325560241,0.072
2939,,,4.949371479454739,0.0
2940,,,4.950545785403727,0.0
2941,,,4.95245399097823,0.0
2942,,,4.9542133822194065,0.0
2943,,,4.956050069766039,0.0
2944,,,4.9562978450023065,0.0
2945,,,4.9562978450023065,0.036
2946,,,4.956884252972642,0.036
2947,,,4.957215435039859,0.036
2948,,,4.957386823367496,0.036
2949,,,4.957386823367496,0.072
2950,,,4.9575161702818535,0.072
2951,,,4.960211296580501,0.072
2952,,,4.9640857308800586,0.072
2953,,,4.964285312522661,0.072
2954,,,4.96443946912387,0.072
2955,,,4.96443946912387,0.108
2956,,,4.967376838873357,0.108
2957,,,4.967916586727875,0.0
2958,,,4.972964785339253,0.0
2959,,,4.974579222364549,0.0
2960,,,4.975084129840458,0.0
2961,,,4.975084129840458,0.036
2962,,,4.994405993677135,0.036
2963,,,4.99450135732831,0.036
2964,,,4.9956546504198185,0.036
2965,,,4.9956546504198185,0.072
2966,,,5.0000223633571474,0.072
2967,,,5.0004531540255845,0.072
2968,,,5.001400473928219,0.072
2969,,,5.001400473928219,0.108
2970,,,5.013607773959005,0.108
2971,,,5.014199860541546,0.108
2972,,,5.014492492281282,0.108
2973,,,5.014492492281282,0.144
2974,,,5.031800923187652,0.144
2975,,,5.031803310228876,0.0
2976,,,5.0371194152757015,0.0
2977,,,5.037252772895699,0.0
2978,,,5.0384097212590975,0.0
2979,,,5.0384097212590975,0.036
2980,,,5.047274941236284,0.036
2981,,,5.047364996710836,0.036
2982,,,5.0474314874180655,0.036
2983,,,5.0474314874180655,0.072
2984,,,5.052866753111421,0.072
2985,,,5.054803317332159,0.072
2986,,,5.055929433405809,0.072
2987,,,5.055929433405809,0.108
2988,,,5.058438991223372,0.108
2989,,,5.0589821252001554,0.108
2990,,,5.062053617032805,0.108
2991,,,5.062779564960851,0.108
2992,,,5.062959278711262,0.108
2993,,,5.062959278711262,0.144
2994,,,5.072370387771717,0.144
2995,,,5.077067819924566,0.144
2996,,,5.080794310243552,0.144
2997,,,5.081148064095992,0.144
2998,,,5.081523397729106,0.144
2999,,,5.081523397729106,0.18
3000,,,5.087444021243301,0.18
3001,,,5.088043288179281,0.18
3002,,,5.088213759222168,0.18
3003,,,5.088213759222168,0.216
3004,,,5.091107489228157,0.216
3005,,,5.092156440193517,0.216
3006,,,5.09258980279867,0.216
3007,,,5.09258980279867,0.252
3008,,,5.0934433272738024,0.252
3009,,,5.095648059352006,0.0
3010,,,5.099215423842858,0.0
3011,,,5.099678059060756,0.0
3012,,,5.099897676539466,0.0
3013,,,5.099897676539466,0.036
3014,,,5.102740388408077,0.036
3015,,,5.1029568315012,0.036
3016,,,5.103207979219296,0.036
3017,,,5.103207979219296,0.072
3018,,,5.107878355341238,0.072
3019,,,5.10821307514787,0.072
3020,,,5.109091111289174,0.072
3021,,,5.109091111289174,0.108
3022,,,5.114812650860805,0.108
3023,,,5.119334935716876,0.0
3024,,,5.119598656791218,0.0
3025,,,5.121109243236449,0.0
3026,,,5.121110380260597,0.0
3027,,,5.121922632022309,0.0
3028,,,5.122152948751398,0.0
3029,,,5.122368465182599,0.0
3030,,,5.122368465182599,0.036
3031,,,5.124705570443338,0.036
3032,,,5.133007434037846,0.0
3033,,,5.138081274853634,0.0
3034,,,5.140462274102073,0.0
3035,,,5.14050409179734,0.0
3036,,,5.14050409179734,0.036
3037,,,5.153299996429108,0.036
3038,,,5.153751350040326,0.036
3039,,,5.153807175115404,0.036
3040,,,5.153807175115404,0.072
3041,,,5.15388240794089,0.072
3042,,,5.154146292381214,0.072
3043,,,5.154256359911616,0.072
3044,,,5.154256359911616,0.108
3045,,,5.154499194451803,0.108
3046,,,5.1573593865287295,0.108
3047,,,5.164357163469723,0.108
3048,,,5.165208909012889,0.108
3049,,,5.165921830590089,0.108
3050,,,5.165921830590089,0.144
3051,,,5.173207409512439,0.144
3052,,,5.176697361371546,0.144
3053,,,5.177327909748299,0.144
3054,,,5.177327909748299,0.18
3055,,,5.185615551232307,0.18
3056,,,5.190357574653068,0.0
3057,,,5.191568689889295,0.0
3058,,,5.191603292174164,0.0
3059,,,5.192023453862553,0.0
3060,,,5.192023453862553,0.036
3061,,,5.192505656095707,0.036
3062,,,5.203249000601061,0.036
3063,,,5.20402156760395,0.036
3064,,,5.2063786843047515,0.0
3065,,,5.206415825959842,0.0
3066,,,5.212144732899252,0.0
3067,,,5.2186888954117086,0.0
3068,,,5.219005628260487,0.0
3069,,,5.219307244507815,0.0
3070,,,5.219307244507815,0.036
3071,,,5.22005130649936,0.036
3072,,,5.220855938930522,0.036
3073,,,5.221192663744296,0.036
3074,,,5.221192663744296,0.072
3075,,,5.225864687254721,0.072
3076,,,5.226359657507399,0.072
3077,,,5.227233749813299,0.0
3078,,,5.237511163780543,0.0
3079,,,5.237526306460668,0.0
3080,,,5.237694084897918,0.0
3081,,,5.237694084897918,0.036
3082,,,5.238703983343195,0.036
3083,,,5.2414656782086295,0.036
3084,,,5.247341678340505,0.036
3085,,,5.2534601622604855,0.0
3086,,,5.259481332555764,0.0
3087,,,5.261853749707696,0.0
3088,,,5.262720689937342,0.0
3089,,,5.262720689937342,0.036
3090,,,5.269956135805383,0.036
3091,,,5.271351230334543,0.036
3092,,,5.27160933684046,0.036
3093,,,5.27160933684046,0.072
3094,,,5.2751602546721275,0.072
3095,,,5.276310304100318,0.072
3096,,,5.276397607237354,0.072
3097,,,5.276397607237354,0.108
3098,,,5.277831012451148,0.108
3099,,,5.278303057154459,0.108
3100,,,5.278580406668808,0.108
3101,,,5.278580406668808,0.144
3102,,,5.278882411105461,0.144
3103,,,5.280490754332871,0.0
3104,,,5.28347863235718,0.0
3105,,,5.285196156410792,0.0
3106,,,5.28568584220566,0.0
3107,,,5.28568584220566,0.036
3108,,,5.288411396207912,0.036
3109,,,5.288465694074124,0.036
3110,,,5.288513704655979,0.036
3111,,,5.288513704655979,0.072
3112,,,5.29453782966745,0.072
3113,,,5.29726845097482,0.072
3114,,,5.300653761016316,0.072
3115,,,5.301908136914363,0.072
3116,,,5.303315316225363,0.072
3117,,,5.308242425075195,0.0
3118,,,5.310164610589337,0.0
3119,,,5.310174995736291,0.0
3120,,,5.310578713838843,0.0
3121,,,5.310578713838843,0.036
3122,,,5.319232830600543,0.036
3123,,,5.322961330774107,0.0
3124,,,5.323873393506276,0.0
3125,,,5.324953944527139,0.0
3126,,,5.325663241069656,0.0
3127,,,5.325663241069656,0.036
3128,,,5.326654831769733,0.036
3129,,,5.326698440854563,0.036
3130,,,5.3276990955760235,0.036
3131,,,5.3276990955760235,0.072
3132,,,5.332602986728065,0.072
3133,,,5.333984434708298,0.0
3134,,,5.336840544335938,0.0
3135,,,5.338186590526896,0.0
3136,,,5.338913717612519,0.0
3137,,,5.347205062772791,0.0
3138,,,5.34891128091695,0.0
3139,,,5.349104779631362,0.0
3140,,,5.349104779631362,0.036
3141,,,5.355499714984229,0.036
3142,,,5.356169992055583,0.036
3143,,,5.356478294359836,0.036
3144,,,5.356478294359836,0.072
3145,,,5.3566555112493655,0.072
3146,,,5.3567849676991655,0.0
3147,,,5.361570589291278,0.0
3148,,,5.361854904145914,0.0
3149,,,5.362571206695471,0.0
3150,,,5.362571206695471,0.036
3151,,,5.36417899085134,0.036
3152,,,5.365484733449997,0.036
3153,,,5.365621642532326,0.036
3154,,,5.365621642532326,0.072
3155,,,5.367641975504523,0.072
3156,,,5.368801970062074,0.0
3157,,,5.370630789614048,0.0
3158,,,5.371498476175062,0.0
3159,,,5.371897097561701,0.0
3160,,,5.371897097561701,0.036
3161,,,5.382053374111586,0.036
3162,,,5.382203250472544,0.0
3163,,,5.385368339654032,0.0
3164,,,5.3858507769039035,0.0
3165,,,5.386280358202195,0.0
3166,,,5.386280358202195,0.036
3167,,,5.3892578066265076,0.036
3168,,,5.389296004959193,0.036
3169,,,5.389907984035852,0.036
3170,,,5.389907984035852,0.072
3171,,,5.391829243027467,0.072
3172,,,5.392708923829541,0.0
3173,,,5.397835286944896,0.0
3174,,,5.399706982320619,0.0
3175,,,5.417092960555901,0.0
3176,,,5.418818155940218,0.0
3177,,,5.423879092439052,0.0
3178,,,5.423929376744945,0.0
3179,,,5.42422186076475,0.0
3180,,,5.42422186076475,0.036
3181,,,5.43213120835397,0.036
3182,,,5.432176838611103,0.036
3183,,,5.432300910083478,0.036
3184,,,5.432300910083478,0.072
3185,,,5.437884765386552,0.072
3186,,,5.440411451333554,0.072
3187,,,5.44066378796732,0.072
3188,,,5.44066378796732,0.108
3189,,,5.453835395944979,0.108
3190,,,5.455554562940583,0.108
3191,,,5.455731521924888,0.108
3192,,,5.455731521924888,0.144
3193,,,5.460432556926555,0.144
3194,,,5.462500774136948,0.144
3195,,,5.470143321878312,0.144
3196,,,5.471538555362691,0.0
3197,,,5.473280575374756,0.0
3198,,,5.47492097577675,0.0
3199,,,5.475145071097626,0.0
3200,,,5.475145071097626,0.036
3201,,,5.477562073574631,0.036
3202,,,5.479835067007019,0.036
3203,,,5.480403474009376,0.036
3204,,,5.480403474009376,0.072
3205,,,5.481835123075098,0.072
3206,,,5.482544886979208,0.072
3207,,,5.482649511132496,0.072
3208,,,5.482649511132496,0.108
3209,,,5.485000324356812,0.108
3210,,,5.487630706061972,0.108
3211,,,5.487977845116299,0.108
3212,,,5.487977845116299,0.144
3213,,,5.500386837351361,0.144
3214,,,5.503665207776961,0.144
3215,,,5.503813067586102,0.144
3216,,,5.503813067586102,0.18
3217,,,5.516660032917627,0.18
3218,,,5.517215984801777,0.18
3219,,,5.517290557053893,0.18
3220,,,5.517290557053893,0.216
3221,,,5.517901879667121,0.216
3222,,,5.517986267499908,0.0
3223,,,5.518129092513758,0.0
3224,,,5.518288019408959,0.0
3225,,,5.51912020229818,0.0
3226,,,5.51912020229818,0.036
3227,,,5.522306689922261,0.036
3228,,,5.528841368051521,0.0
3229,,,5.529402273340819,0.0
3230,,,5.531800876538363,0.0
3231,,,5.53283751337321,0.0
3232,,,5.534390603861833,0.0
3233,,,5.535124752314879,0.0
3234,,,5.535124752314879,0.036
3235,,,5.535583583960107,0.036
3236,,,5.535724535613103,0.0
3237,,,5.541257170021415,0.0
3238,,,5.543865556314093,0.0
3239,,,5.549592749816143,0.0
3240,,,5.549874437678876,0.0
3241,,,5.55034700176583,0.0
3242,,,5.55034700176583,0.036
3243,,,5.552900267571636,0.036
3244,,,5.553707615289244,0.036
3245,,,5.553751797814532,0.036
3246,,,5.553751797814532,0.072
3247,,,5.55693973175596,0.072
3248,,,5.560145875495775,0.072
3249,,,5.560466735196145,0.072
3250,,,5.560466735196145,0.108
3251,,,5.561597190963833,0.108
3252,,,5.562437644015545,0.108
3253,,,5.562948638729492,0.0
3254,,,5.574668022419519,0.0
3255,,,5.576009458145406,0.0
3256,,,5.577180550407989,0.0
3257,,,5.578930765423103,0.0
3258,,,5.580787725885911,0.0
3259,,,5.582930634904053,0.0
3260,,,5.58402955557085,0.0
3261,,,5.584143038481307,0.0
3262,,,5.585709747171708,0.0
3263,,,5.587591797237065,0.0
3264,,,5.588073723315071,0.0
3265,,,5.588073723315071,0.036
3266,,,5.59558184995701,0.036
3267,,,5.5974700253215035,0.036
3268,,,5.59771809887608,0.036
3269,,,5.59771809887608,0.072
3270,,,5.598615486698516,0.072
3271,,,5.600228501913217,0.0
3272,,,5.603177173227231,0.0
3273,,,5.605136253702141,0.0
3274,,,5.6058620293615276,0.0
3275,,,5.606442933123533,0.0
3276,,,5.6068100306165585,0.0
3277,,,5.6068100306165585,0.036
3278,,,5.611952585391323,0.036
3279,,,5.613216401308539,0.036
3280,,,5.6132566034388125,0.036
3281,,,5.6132566034388125,0.072
3282,,,5.613829971354513,0.072
3283,,,5.614056370480822,0.072
3284,,,5.614291431735475,0.072
3285,,,5.614291431735475,0.108
3286,,,5.616353543640373,0.108
3287,,,5.6164982998675805,0.108
3288,,,5.616553645428376,0.108
3289,,,5.616553645428376,0.144
3290,,,5.6193895130394305,0.144
3291,,,5.619674832644317,0.0
3292,,,5.632657697332106,0.0
3293,,,5.632689330916498,0.0
3294,,,5.632880848569228,0.0
3295,,,5.632880848569228,0.036
3296,,,5.6447129849019335,0.036
3297,,,5.645699468876745,0.036
3298,,,5.646311239348262,0.036
3299,,,5.646311239348262,0.072
3300,,,5.646916486716585,0.072
3301,,,5.64942450111358,0.072
3302,,,5.64964907720161,0.072
3303,,,5.64964907720161,0.108
3304,,,5.651320069219632,0.108
3305,,,5.651705918107338,0.108
3306,,,5.651886775138544,0.108
3307,,,5.651886775138544,0.144
3308,,,5.660479521916391,0.144
3309,,,5.660595645745334,0.144
3310,,,5.660721716110966,0.144
3311,,,5.660721716110966,0.18
3312,,,5.663946092161127,0.18
3313,,,5.664497818282677,0.18
3314,,,5.664586523958973,0.18
3315,,,5.664586523958973,0.216
3316,,,5.670492674555677,0.216
3317,,,5.6707592105787645,0.216
3318,,,5.6711917534768395,0.216
3319,,,5.6711917534768395,0.252
3320,,,5.673808133672204,0.252
3321,,,5.674439468286034,0.252
3322,,,5.674499765397676,0.252
3323,,,5.674499765397676,0.288
3324,,,5.678078219624335,0.288
3325,,,5.680151976580032,0.288
3326,,,5.683256552206545,0.288
3327,,,5.68376896181253,0.288
3328,,,5.683844609885097,0.288
3329,,,5.683844609885097,0.324
3330,,,5.68796070488555,0.324
3331,,,5.6882323691889765,0.324
3332,,,5.6884379269103205,0.324
3333,,,5.6884379269103205,0.36
3334,,,5.689218652891001,0.36
3335,,,5.691785622633128,0.36
3336,,,5.692481754564436,0.36
3337,,,5.692481754564436,0.396
3338,,,5.694165535069446,0.396
3339,,,5.700482985466237,0.396
3340,,,5.701838795962353,0.396
3341,,,5.701883058619292,0.396
3342,,,5.701923265563091,0.396
3343,,,5.701923265563091,0.432
3344,,,5.7071049576492525,0.432
3345,,,5.707290704998525,0.0
3346,,,5.707572173863283,0.0
3347,,,5.710038758987472,0.0
3348,,,5.7101788462277545,0.0
3349,,,5.7101788462277545,0.036
3350,,,5.711426066207559,0.036
3351,,,5.713011921170582,0.0
3352,,,5.713031636694283,0.0
3353,,,5.714117044754025,0.0
3354,,,5.715646424639975,0.0
3355,,,5.715646424639975,0.036
3356,,,5.719538355504347,0.036
3357,,,5.723101522736335,0.0
3358,,,5.726728070846396,0.0
3359,,,5.730704679157667,0.0
3360,,,5.732863368961298,0.0
3361,,,5.734792342208606,0.0
3362,,,5.735324305575285,0.0
3363,,,5.735324305575285,0.036
3364,,,5.73582661715439,0.036
3365,,,5.736296469751674,0.036
3366,,,5.736303533827209,0.036
3367,,,5.736303533827209,0.072
3368,,,5.737117189868967,0.072
3369,,,5.7372801679317496,0.072
3370,,,5.737722882921143,0.072
3371,,,5.737722882921143,0.108
3372,,,5.7388449578663865,0.108
3373,,,5.740131634214902,0.108
3374,,,5.740993886855139,0.108
3375,,,5.740993886855139,0.144
3376,,,5.741717887124504,0.144
3377,,,5.7424156994759405,0.144
3378,,,5.743500633781658,0.144
3379,,,5.743500633781658,0.18
3380,,,5.745242422704117,0.18
3381,,,5.746295224177524,0.0
3382,,,5.753186296593168,0.0
3383,,,5.753318525401727,0.0
3384,,,5.753571990382894,0.0
3385,,,5.753571990382894,0.036
3386,,,5.761890351596583,0.036
3387,,,5.762676342555367,0.036
3388,,,5.763424293262765,0.036
3389,,,5.763424293262765,0.072
3390,,,5.765523882031933,0.072
3391,,,5.768573793180841,0.072
3392,,,5.769062781295168,0.072
3393,,,5.769062781295168,0.108
3394,,,5.769290812596071,0.108
3395,,,5.769604157088229,0.108
3396,,,5.769644510208566,0.108
3397,,,5.769644510208566,0.144
3398,,,5.769998323384862,0.144
3399,,,5.7702594398776315,0.144
3400,,,5.771103884036152,0.144
3401,,,5.771103884036152,0.18
3402,,,5.77279869106668,0.18
3403,,,5.7730707958422505,0.0
3404,,,5.779390392877262,0.0
3405,,,5.780535249728534,0.0
3406,,,5.780702422679254,0.0
3407,,,5.780702422679254,0.036
3408,,,5.781112762892694,0.036
3409,,,5.781763925699297,0.0
3410,,,5.786089044156236,0.0
3411,,,5.7860977340782584,0.0
3412,,,5.786154666561111,0.0
3413,,,5.786154666561111,0.036
3414,,,5.79429925919101,0.036
3415,,,5.794527905353903,0.036
3416,,,5.794865615031514,0.036
3417,,,5.794865615031514,0.072
3418,,,5.795458576326959,0.072
3419,,,5.797270038473797,0.0
3420,,,5.798388391540478,0.0
3421,,,5.799031977086995,0.0
3422,,,5.801069282178736,0.0
3423,,,5.802082299376605,0.0
3424,,,5.803245461060409,0.0
3425,,,5.803245461060409,0.036
3426,,,5.808570775849259,0.036
3427,,,5.808646769323523,0.036
3428,,,5.808660773995954,0.0
3429,,,5.815955729012562,0.0
3430,,,5.816604523569619,0.0
3431,,,5.817394703118176,0.0
3432,,,5.817394703118176,0.036
3433,,,5.817565425141663,0.036
3434,,,5.819551148186689,0.036
3435,,,5.821756361605925,0.036
3436,,,5.822783742224478,0.036
3437,,,5.823203055186144,0.036
3438,,,5.823203055186144,0.072
3439,,,5.825670368323416,0.072
3440,,,5.8269153805975415,0.072
3441,,,5.82811741226599,0.072
3442,,,5.82811741226599,0.108
3443,,,5.842424033853386,0.108
3444,,,5.842762414958622,0.0
3445,,,5.843354271486869,0.0
3446,,,5.843633838014003,0.0
3447,,,5.843908948762805,0.0
3448,,,5.843908948762805,0.036
3449,,,5.846725011690647,0.036
3450,,,5.850515087055441,0.0
3451,,,5.852560719698649,0.0
3452,,,5.852588351823793,0.0
3453,,,5.85348946359765,0.0
3454,,,5.85348946359765,0.036
3455,,,5.854943463673011,0.036
3456,,,5.855914316549927,0.036
3457,,,5.856221033722998,0.036
3458,,,5.856221033722998,0.072
3459,,,5.860884784111513,0.072
3460,,,5.871899882310561,0.0
3461,,,5.880474276951536,0.0
3462,,,5.882792874968213,0.0
3463,,,5.882931927166651,0.0
3464,,,5.883639038254501,0.0
3465,,,5.88450070597763,0.0
3466,,,5.885078920812046,0.0
3467,,,5.885078920812046,0.036
3468,,,5.886605401119126,0.036
3469,,,5.886677923139486,0.0
3470,,,5.887212720645324,0.0
3471,,,5.889094951745476,0.0
3472,,,5.889601265566571,0.0
3473,,,5.889601265566571,0.036
3474,,,5.894443437649774,0.036
3475,,,5.894942231011718,0.036
3476,,,5.895695293139172,0.036
3477,,,5.895695293139172,0.072
3478,,,5.901426391984866,0.072
3479,,,5.901481213856447,0.072
3480,,,5.901780326683114,0.072
3481,,,5.901780326683114,0.108
3482,,,5.903832279096773,0.108
3483,,,5.905861070537958,0.108
3484,,,5.906073192567061,0.0
3485,,,5.915855676304068,0.0
3486,,,5.926338033507776,0.0
3487,,,5.9317969232121905,0.0
3488,,,5.933513237940372,0.0
3489,,,5.9338444817262035,0.0
3490,,,5.9338444817262035,0.036
3491,,,5.934105246645193,0.036
3492,,,5.934891012881139,0.036
3493,,,5.93564338458556,0.036
3494,,,5.93564338458556,0.072
3495,,,5.937692748151563,0.072
3496,,,5.937880353284789,0.072
3497,,,5.938282121123149,0.072
3498,,,5.938282121123149,0.108
3499,,,5.954415226390313,0.108
3500,,,5.954952982612636,0.0
3501,,,5.9550087063317205,0.0
3502,,,5.95502183906449,0.0
3503,,,5.955120842343576,0.0
3504,,,5.9560520158676935,0.0
3505,,,5.956118066412842,0.0
3506,,,5.957076299334697,0.0
3507,,,5.958533269613926,0.0
3508,,,5.9611283109986966,0.0
3509,,,5.961303609252602,0.0
3510,,,5.96133727747683,0.0
3511,,,5.96133727747683,0.036
3512,,,5.963231730004586,0.036
3513,,,5.9654180724615555,0.036
3514,,,5.966358349112386,0.036
3515,,,5.966358349112386,0.072
3516,,,5.966458293991603,0.072
3517,,,5.9672795525623465,0.0
3518,,,5.973235248269103,0.0
3519,,,5.97324195352664,0.0
3520,,,5.974052383058168,0.0
3521,,,5.974052383058168,0.036
3522,,,5.974752022458277,0.036
3523,,,5.976494314623523,0.036
3524,,,5.976534580353502,0.036
3525,,,5.976534580353502,0.072
3526,,,5.977682830345782,0.072
3527,,,5.978773279970707,0.072
3528,,,5.9789356527781665,0.072
3529,,,5.9789356527781665,0.108
3530,,,5.980295800464806,0.108
3531,,,5.980785491578687,0.108
3532,,,5.980889183628288,0.108
3533,,,5.980889183628288,0.144
3534,,,5.982314829374139,0.144
3535,,,5.9824198625556155,0.144
3536,,,5.983611344091368,0.144
3537,,,5.983611344091368,0.18
3538,,,5.98520454457472,0.18
3539,,,5.986056682740494,0.18
3540,,,5.986075811089038,0.18
3541,,,5.986075811089038,0.216
3542,,,5.986726025255673,0.216
3543,,,5.986859203803516,0.0
3544,,,5.991764332400403,0.0
3545,,,5.992542994627626,0.0
3546,,,5.99302842845968,0.0
3547,,,5.99302842845968,0.036
3548,,,5.999574643389381,0.036
3549,,,5.999770709963605,0.036
3550,,,6.000263146571288,0.036
3551,,,6.000263146571288,0.072
3552,,,6.002347506287795,0.072
3553,,,6.002478575534396,0.072
3554,,,6.0026330186053665,0.072
3555,,,6.0026330186053665,0.108
3556,,,6.003049001327388,0.108
3557,,,6.004907149081091,0.0
3558,,,6.0065225571145,0.0
3559,,,6.006972501508403,0.0
3560,,,6.007505545719952,0.0
3561,,,6.007505545719952,0.036
3562,,,6.016606939278296,0.036
3563,,,6.018560278153603,0.0
3564,,,6.021049678397353,0.0
3565,,,6.0215063340235,0.0
3566,,,6.021989782211414,0.0
3567,,,6.021989782211414,0.036
3568,,,6.022047247559802,0.036
3569,,,6.0221990670912104,0.036
3570,,,6.022447060101128,0.036
3571,,,6.022447060101128,0.072
3572,,,6.026402186245986,0.072
3573,,,6.026525109180944,0.072
3574,,,6.026782885157226,0.072
3575,,,6.026782885157226,0.108
3576,,,6.029371962727152,0.108
3577,,,6.030883997759152,0.108
3578,,,6.031451820812193,0.108
3579,,,6.031451820812193,0.144
3580,,,6.031510145678358,0.144
3581,,,6.031555000684919,0.144
3582,,,6.031576196891678,0.144
3583,,,6.031576196891678,0.18
3584,,,6.032427846207235,0.18
3585,,,6.032434333915767,0.18
3586,,,6.032690282081936,0.18
3587,,,6.032690282081936,0.216
3588,,,6.037015404662923,0.216
3589,,,6.037444370287338,0.216
3590,,,6.0378842786557305,0.216
3591,,,6.0378842786557305,0.252
3592,,,6.040685637235115,0.252
3593,,,6.041710218326538,0.252
3594,,,6.0417583484131105,0.252
3595,,,6.0417583484131105,0.288
3596,,,6.051114795008419,0.288
3597,,,6.052004437029937,0.0
3598,,,6.057906370574217,0.0
3599,,,6.059186645855596,0.0
3600,,,6.0593729792614015,0.0
3601,,,6.0593729792614015,0.036
3602,,,6.066661955344748,0.036
3603,,,6.069453142263639,0.036
3604,,,6.069461562781117,0.036
3605,,,6.069461562781117,0.072
3606,,,6.070064939965367,0.072
3607,,,6.079125610615754,0.0
3608,,,6.09008979678059,0.0
3609,,,6.090596840098839,0.0
3610,,,6.091627229247643,0.0
3611,,,6.091627229247643,0.036
3612,,,6.094837751688751,0.036
3613,,,6.094919621099662,0.036
3614,,,6.095550672741127,0.0
3615,,,6.096145216159061,0.0
3616,,,6.096181423942421,0.0
3617,,,6.096853966402185,0.0
3618,,,6.096853966402185,0.036
3619,,,6.100319891025687,0.036
3620,,,6.101201513503468,0.036
3621,,,6.102041258578811,0.036
3622,,,6.102041258578811,0.072
3623,,,6.114132093135775,0.072
3624,,,6.114233942838362,0.0
3625,,,6.115251046100528,0.0
3626,,,6.116169930865859,0.0
3627,,,6.116519674164535,0.0
3628,,,6.116519674164535,0.036
3629,,,6.122872564876091,0.036
3630,,,6.122934670137334,0.036
3631,,,6.123038320740217,0.036
3632,,,6.123038320740217,0.072
3633,,,6.124721736019127,0.072
3634,,,6.12739998469971,0.0
3635,,,6.130965640359459,0.0
3636,,,6.131010500382531,0.0
3637,,,6.1338549935146895,0.0
3638,,,6.135916347977305,0.0
3639,,,6.13721366601784,0.0
3640,,,6.137787506904748,0.0
3641,,,6.140106813584365,0.0
3642,,,6.140106813584365,0.036
3643,,,6.157893464045377,0.036
3644,,,6.158445004557136,0.0
3645,,,6.165816006293396,0.0
3646,,,6.170802307456484,0.0
3647,,,6.178738140515548,0.0
3648,,,6.1790936010549276,0.0
3649,,,6.1791909071396764,0.0
3650,,,6.1791909071396764,0.036
3651,,,6.179599423662512,0.036
3652,,,6.179666070568515,0.036
3653,,,6.180093305498448,0.036
3654,,,6.180093305498448,0.072
3655,,,6.186018291538519,0.072
3656,,,6.189812268870033,0.0
3657,,,6.196108708618849,0.0
3658,,,6.198316285177296,0.0
3659,,,6.198526749685226,0.0
3660,,,6.198526749685226,0.036
3661,,,6.198645371131003,0.036
3662,,,6.198810696411683,0.036
3663,,,6.198979337563132,0.036
3664,,,6.198979337563132,0.072
3665,,,6.210607299901983,0.072
3666,,,6.211958099055679,0.072
3667,,,6.212582834599778,0.072
3668,,,6.212582834599778,0.108
3669,,,6.221053876257204,0.108
3670,,,6.221083297309451,0.108
3671,,,6.221241332722932,0.108
